"1",-818.875,55.1249999999984,-83.625000000001,-186.625000000002,74.9999999999989,5925.75,1098.875,-836.374999999998,166.749999999999,852.999999999998,383.875,-798,36.4999999999995,-115.000000000002,-145.625000000001,44.625000000001,5384.875,970.125000000001,-805.25,183.625,857.875,332.624999999999,-750.5,96.3749999999997,-83.1250000000008,-57.7500000000001,-11.3750000000008,1756.125,-26.9999999999994,-624.374999999999,300.499999999999,857.375,-10.3749999999987,-543.125,57.8749999999981,-100.25,-48.3749999999997,-28.7499999999989,1180.125,-132.375,-626.5,237.874999999999,758.375,-29.1249999999995,-559,59.3749999999988,-164.750000000002,-132.749999999998,70.9999999999994,5417.875,841.624999999999,-843.499999999999,220.5,879.75,321.5,-798.625,56.6249999999989,-103.750000000001,-62.0000000000013,27.7500000000015,3951,410.499999999999,-733.375,246.875,809,191.75,-707.124999999999,103.625,-68.7499999999998,-91.1249999999998,23.8750000000004,4191,791.625,-793.374999999999,220.5,866.125,176.749999999998,-721.375,68.1249999999998,-46.5000000000001,-136.5,31.8750000000001,4259.875,715.750000000001,-746.625,182.625,805.375,150.250000000001,-631.125,127.125,-94.2500000000001,-217.75,164.5,7151.25,1247.125,-892.874999999999,47.375,878.25,521.124999999999,-867.875,-12.1250000000003,-54.1249999999999,-193,82.0000000000008,6387.625,1216,-841.749999999999,132.25,933.875,404.874999999999,-721.25,96.7499999999997,67.8749999999996,-64.6250000000004,60.6249999999999,4196.75,721.124999999999,-798.124999999999,177.75,831.625,114.25,-753.125,63.1249999999997,-21.3750000000002,-161.25,88.7500000000005,4622.625,732.5
"1",-451.499999999999,4.62500000000005,-79.4999999999999,-129.875,195,140.75,-6910.25,-1252.25,-548.375,225.25,465.125,524.875,-279.75,-3.00000000000018,-126.374999999999,-258.375,225.875,3519.75,-2276.5,-2533.5,-238,318,493.875,140.499999999999,-47.125,-109.999999999999,-40.3749999999995,-181.625000000001,147.75,6127.625,3736.5,-2017.75,24.25,527.875,438.749999999999,-141.875,1.37500000000021,-135.249999999999,-125.499999999999,166.875,93.2499999999998,-6106.125,-540.25,-768.5,164.875,346.124999999999,402,-139.124999999999,47.7499999999999,-137.124999999999,-336.749999999998,185.749999999999,3990.5,-2265.125,-2270.25,-225,214.5,421.500000000001,188.624999999999,-167,-40.125,-74.4999999999995,49.2499999999986,5.25000000000022,286.75,1165.625,-1234.75,65.6250000000002,442.999999999999,615.875,-416.75,128.124999999999,37.375,-233.5,187.375,3551.75,-2097.375,-2204.5,-254.375,406.624999999999,472.999999999999,52.2499999999992,-0.499999999998573,-53.8750000000007,-96.8749999999985,94.8749999999981,40.2499999999998,-2105.125,560.374999999999,-1094.625,108.625,366.125000000001,476.124999999999,-275.625,94.7500000000002,-63.7500000000015,-273.749999999999,266,3236.875,-3675.125,-2042.625,-262.875,259.625000000001,428.5,249.625,-246.749999999999,-0.124999999999645,-151.625,12.1249999999995,-45.2500000000005,-1122.25,737.499999999999,-1050.25,62.1250000000002,340.625,646.499999999999,-488,66.5000000000006,-62.2499999999996,-292.874999999998,223.25,5528.75,302.374999999999,-2310,-241.25,392.625,485.625,41.1250000000002
"1",-1119,-261.625,-1411.75,511,1285.125,20.2499999999998,-48.6249999999999,-9,-298.25,168.125,-4325.625,-647.25,-148.375,-924.875,-947.499999999999,1930.25,132,-62,-65.75,-73.75,312.375,-1303.5,5332,-224.375,-547,-1675,2102,490.875,-76.7499999999999,-67,-0.500000000000048,-203.875,132.875,1862.625,-1052.875,-294.875,-1453.75,749.499999999999,1156,-9.75000000000006,-84.8749999999999,0.500000000000035,-377.75,63,-1598.25,-1435.375,-221.625,-1320,97.9999999999999,1461.25,76.7500000000003,-71.2500000000001,-41.75,-250.125,154.375,1064,-1147.375,-285,-1455.625,680.625,1209.25,68.25,-41.3750000000001,-10.3749999999999,-132.375,144.625,3290.75,-1040,-282,-1452.25,930.625,936.499999999999,-36.5,-48.875,-11.75,-188.625,85.1249999999999,3076.25,-1125,-317.75,-1482.875,1005.875,975.624999999999,-14.25,-39.5,-42.125,-347.875,175.125,-4447.875,-673,-165.25,-935.375,-851.749999999999,1946.25,130.375,-51.2499999999999,-16.5,-15.75,234.75,-553.375,5927.875,-666,-379.25,-1606.625,1623.125,709.625,-44.125,-42.625,-26.25,-375.375,289.375,-4469.25,-20.6250000000001,-145.75,-829.125,-1100.75,1948.875,195.125,-54.875,-6.99999999999999,5.75,-423,99.5,-2809.75,-1312,-218.5,-1180.125,-305.499999999999
"1",229.5,-5747.5,1600.625,633.75,2610.375,-1891.875,-1542,1.25000000000016,61.5000000000001,-108.375,-346.125,183.5,87.875,2436.625,2760.25,446,1667.125,1701.75,-3295.5,-255.875,115.25,-44.875,-37.375,-80,62.2499999999999,768.25,-6167.75,941.624999999999,777.999999999999,2851.125,-2828.25,-1201.75,-0.250000000000001,-4.37500000000001,-145.625,-338.5,91.3749999999999,59.5,2015.375,3521.25,340,1855.75,1326.375,-3343,-254.25,91.75,-104.375,-38.125,-162.5,128.5,284.25,-6878.625,1627.25,692.25,2825.125,-2235.375,-1624,-79.5,97.3749999999999,-89.1249999999999,-101.75,-11.875,62.625,1998.125,-3423.75,500.5,1111.75,2897.75,-3697.125,-856.375,-12.3750000000001,15.25,-141,-289,107.625,25.4999999999999,3177.375,2706,407.25,1715,2000,-3838.125,-464.875,31.1250000000001,0.750000000000143,-75.125,-284,105,64.25,143.625,4042.75,493.5,2349.125,602.999999999999,-3186,-254.5,113.25,-72.25,-19.3749999999999,-208.25,81.6249999999999,103.375,-6387.5,2191.75,680.375,3002.75,-1785.25,-1945,-53.625,98.6249999999999,-114.5,-152.25,36.875,99.4999999999999,1901.875,-3873.25,489.625,1095.25,2924.875,-3600.125,-891.5,-34.375,33.625,-85,-346.375,61,42.3749999999999,725.375
"1",-4812.625,2359.25,397.75,401.875,-1913.375,108.875,246,68,384.625,-305.75,-33.875,-1761.75,5307,415.625,598.625,-612.25,-1407.875,300.75,128.25,146.125,-153.25,166,205.5,-4970.125,3152.375,359.624999999999,423.625,-1876.75,-69.625,121,166,372.875,-341.125,27.375,-1635.25,3999.875,446.25,700.375,-768.75,-1276.25,389.375,250.375,34.875,-53.625,29.25,20,-5399.375,4276.625,502.75,636.25,-1861.125,-431.875,101,141.375,328.375,-413.125,-57.25,-1862.375,4119.5,490,684.374999999999,-744.5,-1301.875,320.25,174.75,190.75,-340.5,-50.375,-124.625,-4892.5,2129.25,483.625,285.125,-1992.5,379.125,257.25,34.125,307,-276.125,190.875,-2109.5,6186.25,588.249999999999,682.124999999999,-615.249999999999,-1507.625,-77.25,287.5,200.375,-287.375,73.5,19.875,-4663.75,2049,346.375,259.25,-2040.625,119.25,281.25,5.75000000000004,291.5,-221.75,123.25,-1994.875,6403.125,422.5,585.75,-1049.5,-1009.75,129.25,213.625,248.875,-242.125,51.375,-56.875,-5151,2362.625,606.124999999999,516.875,-2171.75,-40.6249999999999,271,181.75,310.625,-163.125,36.5,-2173.5,6402.625
"1",254,51.5000000000001,88.2499999999999,-3433.75,5704.375,428.124999999999,700.5,-1387.125,-434.625,322.875,103.125,93.7499999999995,-277.625,-25.6249999999999,147,-5477.375,2085,542.875,519.25,-2175.875,-143.375,272.125,175.75,363.625,-390.375,-34.2499999999998,-1781,5155.375,286.5,576.25,-655.624999999999,-934,334.875,159,-42.7499999999997,-54.3750000000001,59.8749999999998,106,-4743.375,4188.5,324.75,695.875,-1652.75,-292.125,168.375,241.375,223.625,-466.999999999999,-41.625,-374.375,-3747.375,1190.25,544.75,393.25,-2091.5,-11.875,335.375,83.375,257.75,-205.125,9.49999999999982,-2188.375,6540.75,347.375,605.5,-1084.875,-808.375,320.5,117.375,60.3749999999999,7.12499999999986,86.8749999999999,56.3750000000001,-5395.625,4114.75,519.5,778.374999999999,-1906.25,-429.875,195.375,318.75,331.75,-554.625,15.6249999999998,-458.625,-3148.75,1144.375,502,39.3750000000002,-1951,7.74999999999989,334.375,51.125,303.75,-92.4999999999999,46.7500000000003,-2100.125,6785.125,339.75,589.25,-1031.125,-741.5,357.375,103,161.25,-20.2500000000002,12.3749999999997,55.2499999999999,-5614.75,4195,531.374999999999,778.125,-1758.875,-528.5,231.5,164.5,369.999999999999,-584.875,-100.125,-1017.625,459.499999999999,763.5,579.25,-211.375000000001,-1824.5,306.375,304.375,21.2499999999998
"1",-1690.375,151.375,-262.75,-56.3749999999999,-136.749999999999,-56.999999999999,-6462.875,1766.375,400.999999999999,-245.5,-1309.625,117.500000000001,-175.749999999999,-28.2499999999991,-406.999999999999,-98.3750000000005,-2209.625,625,445.625,-847.124999999999,-744,69.5000000000002,-152.750000000001,59.1250000000008,-370.75,-640.124999999999,5530,292.874999999998,627.499999999999,-1663,-129.625000000001,52.6250000000009,-94.2499999999994,159.875000000001,-312.5,-709.875,6506.625,241.75,739.874999999999,-1798.875,-26.7499999999991,-7.00000000000024,-190.75,160.125,-357.249999999999,-987.625,7142,270.999999999999,687.624999999998,-1957.125,-11.7499999999998,-60.7500000000013,-197.375,162.25,-336.499999999999,-1059.5,7097.375,233.625000000001,703,-1843.375,-41.4999999999985,-59.5000000000006,-123,130.624999999998,-369.375,-1051.75,6790,277.374999999999,604.374999999999,-1831.625,-99.0000000000004,25.6249999999997,-132.250000000001,162.75,-272.125,-1490.5,7809.87499999999,286.375,647.374999999999,-1993.25,-12.1249999999996,16.1250000000005,-103.375000000001,56.0000000000001,-357.250000000001,-690.499999999999,6221,223.874999999999,693.75,-1804.75,-125.625,-26.0000000000001,-204.375,89.3749999999999,-411.75,-458.5,4891.75,243.124999999999,644.500000000001,-1600.625,-227.625,32.2499999999994,-157.125,99.7500000000002,-421,-144.375000000001,2655.75,385.625000000001,690.375,-1235,-305.5,178.5,-77.2500000000008,126.874999999999,-358.499999999999,-2.74999999999992,878.499999999997,545.25,595.5,-1010.75,-504.249999999998,102.25,-55.1250000000001,14.874999999998,-375.499999999998,-112.124999999999,-685.250000000001,527.749999999999
"1",-363.125,-47.75,-2966.625,520.25,385,-496.875,-871.25,113.625,-229,71.8749999999999,-310.75,-100.125,941.25,314.625,518.375,-908.999999999999,-580.625,48.375,-237.125,104.125,-289.125,-833.624999999999,6051.125,217.25,459.5,-1457.25,-142.375,21.4999999999999,-144.125,253,37.25,-2952.25,8649.875,220.5,629.5,-2107.125,122,-37,-78.25,324.25,74.75,-4861.75,7827.25,227.625,687.25,-2299.875,276.75,-149.75,199.5,-436.25,-3309.5,9065.99999999999,298.625,660.875,-2196.75,224.625,-121.75,-150.875,9.74999999999999,71.125,89.3749999999999,-6867.5,3355.125,338.374999999999,371.125,-1892.125,233.625,-217,-35.125,-246.5,-53.2499999999999,-4324,1067,324.625,-332.75,-1031.875,116.25,-118.375,70.125,-405.125,-45.1250000000001,1805,351.5,483.625,-976.374999999999,-551.875,67.125,-176.125,91.7500000000001,-306.625,-331.125,4460,240.5,603.125,-1299,-261.375,11.25,-204.375,159.5,-245.125,-984.749999999999,6859.25,200.5,592.125,-1615.625,-59.25,-17.625,-93.75,293.625,-130.25,-1930.625,8253.49999999999,267.875,608.625,-1807.25,0.875000000000051,-25.125,-89.875,338.625,30.625,-4760.125,7919.49999999999,265.125,555.999999999999,-2110.375,136.125,-52.125,-1.37499999999999
"1",-4896,2680.125,464.25,-924.875,-684.125,-30.625,-140.125,367.5,100.75,-5288.75,4375,354.875,-440.75,-1068.5,73.5,-108.125,230.125,-62.4999999999999,-3689.5,6924,342.124999999999,84.2500000000001,-1563.125,158.625,-209,159.875,-271.875,-2146.25,7998.75,317.5,423.999999999999,-1976.25,185.5,-182.75,60.125,-400.75,-1051.125,6030.125,246.75,566.249999999999,-2015.5,112.375,-158.5,-15.5,-420.375,-365,3880.375,298.25,527.624999999999,-1915.875,-25.625,-144.875,-19.75,-272.125,-116.375,1658.875,364.125,582.124999999999,-1876.875,-78.625,-76.7499999999999,-125.625,-148.25,-108.125,-1198.625,501.124999999999,541.375,-1760.25,-130.875,-126.375,-120.5,101.75,39,-4106.75,1093.5,597.875,-1415.375,-303.875,82.3749999999999,-287,-4241.75,1485.25,512.249999999999,-1639.625,-140.625,-146.375,-89.375,25.3749999999999,139.5,-491.625,-242.625,3355.625,294.375000000001,602.374999999999,-1907.5,-133.375,-160.375,-37.7499999999999,-296.75,-96.625,1363.875,326.874999999999,512.5,-1806,-111.75,-130.75,-58,-64.125,-41.125,-1895.5,575.749999999999,552.75,-1655,-194.5,-74.4999999999999,-103.375,149.5,50.5,-4752.375,1715.125,483.625,-1205.125,-359.625,-58.9999999999999,-79.25,305.125,96.625,-5588
"1",-69.9999999999986,-276.124999999998,31.1250000000011,-4679,1416.75,327.625,629.75,-1600.375,127.875,-72.4999999999986,-65.250000000001,-68.6250000000014,106.75,-4948.25,2420,173.375000000001,506.125,-1398.625,-17.2500000000001,-5.00000000000114,-81.625000000001,105.874999999999,175.625,-5122.75,4130.5,194.874999999999,562.875000000001,-1191.75,-197.499999999999,1.49999999999954,-110.375000000001,65.6249999999991,-175.624999999999,-799.625,5579,246.25,431.124999999999,-100.499999999999,-1072.875,80.8750000000016,-142.625,-13.875,-437.624999999999,25.5000000000005,-1029.625,527,277.75,443.624999999999,-1552.125,135.999999999998,-138.499999999999,-63.0000000000005,-1.87499999999891,148.625,-5682.75,2906.125,243.375,564.625,-1423.75,-76.4999999999997,1.02184927186499e-12,-115.5,180.25,155.374999999999,-4356.75,4888.875,158.749999999999,477.5,-958.624999999999,-313.25,35.8749999999999,-98.3750000000005,113.75,-84.6249999999996,-1690.25,6232.625,219.25,443.624999999999,-409.500000000001,-702.749999999999,106.750000000001,-107.999999999999,50.9999999999998,-268.375000000001,-310.875,4021.75,302.250000000001,383.25,94.6250000000003,-1170.75,39.6249999999997,-148.375,1.00000000000009,-392.375,-39.6249999999996,1601.375,429.250000000002,339.000000000001,271.5,-1294.375,94.9999999999989,-164.375,52.2499999999991,-325.250000000001,-19.5000000000007,1381.375,484.875,253.625,235,-1210,-1.99999999999862,-49.2499999999997,-15.0000000000004,-450.375000000001,8.37499999999936,-230.25,611.249999999999,234.499999999999,351.874999999999,-1411.125,98.6249999999992,-46.6249999999994,-111.999999999998,-268.000000000001,78.8749999999984,-5210.75,1669,231.249999999999
"1",150.625,-213.375,-24.875,-7160.625,1827.625,402.25,663.499999999999,-773.124999999999,-949.624999999999,296.875,-40.125,-120.375,-55.25,54.2500000000001,18.5,-135.125,242,-2122.375,8388.62499999999,313.875,539.875,268.75,-1379.875,-33.875,211.375,-172.25,-149.375,83.75,-2.00000000000035,50.7499999999999,-406,64.6249999999999,-4776,8676.875,271.875,561,-118.875,-1466.5,114.75,150.625,-178.25,-85.625,27,-26.3749999999999,181.75,55.6249999999999,-162,-3033.75,773,363.624999999999,630.375,-946.249999999999,-680.625,225.25,-41.125,-92.2499999999997,-22.2499999999999,-14.6250000000001,12.25,-376.375,180.5,-3819.125,9358.87499999999,277.125,500.125,132.625,-1504.125,107,158.125,-112.5,-61.6250000000002,-69.625,53.3749999999999,44.875,-571.625,52.25,-6538.125,6744.25,338.874999999999,610.875,-261.5,-1462.5,201.125,38.75,-187.125,-35.0000000000001,-11.7499999999998,-9.62499999999997,-374,81.2499999999999,-3958.125,9354.87499999999,331.124999999999,564.25,26.8749999999997,-1425.625,98.6249999999998,156.875,-170.5,-81.6249999999997,-34.9999999999998,-9.12499999999988,-277.5,178.75,-2965.375,8921.99999999999,314.5,475.999999999999,203.875,-1381.25,10.8749999999999,225.75,-36.5,-69.0000000000001,0.99999999999997,-36.25,105.875,267.375,-930.125,3240.75,369.375,535.875000000001,513.749999999999,-1117.25,-363.25,264.375,-132.25,-75.25
"1",439.249999999999,104.375,-1255.25,-46.2499999999998,18.75,-34.375,110.625,49.5,-6722.25,4380,405.125,591.499999999999,-1250,-148.25,28.75,10.4999999999999,377.5,-216.375,147,6572.5,427.124999999999,615.625,-400,-698.749999999999,-32.1249999999999,-29.6250000000001,33.7500000000004,-300.749999999999,62.0000000000001,-7890.25,1913.875,437.125,448.125000000001,-1343.25,-51.8749999999996,-15.0000000000001,0.87500000000053,503,38.3750000000002,-1261.5,7884.625,391.499999999999,608.249999999999,-797.124999999998,-493.375,-51.8750000000002,-62.3749999999998,9.87500000000014,-56.0000000000005,-0.624999999999788,-7918.375,3665.625,401.5,585.25,-1352.125,-201.25,-1.87500000000044,-34.6249999999995,188.125000000001,-518.624999999999,271.124999999999,1150.75,524.249999999999,507.25,-87.6249999999996,-1137,-82.3750000000003,3.00000000000002,16.4999999999999,397.749999999999,-28.9999999999999,-1784.5,7309.375,365.875,586.875,-837.25,-487.375,-11.9999999999999,-16.75,-38.4999999999995,-83.2499999999999,-48.9999999999998,-7575.875,3045.75,433.25,531,-1331.375,-131.75,-17.1250000000001,30.5,39.875,-522.375,49.375,-5328.75,1065,467.499999999999,264.625,-1310.875,-0.999999999999896,-21.5000000000001,4.87500000000003,307.625,-236.25,79.4999999999999,6484,424.125000000001,569.5,-403.375,-776.875,5.49999999999994,-1.99999999999999,-60.5,427,49.6250000000001,-3344,7243.375,358.624999999999,639.875,-972.25,-373.75,-15.7499999999999,-45.7499999999999,19.1249999999999,42.875,34.8749999999999,-7769.75,3951.125,313.875
"1",-792,6741.25,167.875,176.375,-241.75,-1223.75,745.25,70.2500000000002,-26.2499999999999,-43.8749999999998,115.625,-374.749999999999,506.875,768.874999999999,303.375,228.875,169.875,-1515.125,963.374999999999,138,51.8749999999999,26.7499999999996,68.8750000000001,-203.25,293.125,-3633.25,706.5,203.25,116.25,-1518,1021,154.375,8.37499999999988,17.5000000000001,-36.9999999999997,323.875,-44,-7723.5,3030.25,125.875,216.875,-927.624999999999,306.499999999999,329.625,112.125,23.125,2.50000000000002,238.25,-462.375,466.5,4693.125,259.375,156.125,-92.2499999999998,-1528.125,1029.375,10.3750000000002,37.0000000000002,-17.5,10.25,357.25,-204.25,-4112.625,5830,150.125,222.875,-630.124999999999,-565.25,612.75,12.8749999999998,20.875,-11,193.625,-525,576,3714.875,253.5,136.375,-126.5,-1627.625,1068,148.625,84.3750000000001,-57.6249999999999,49.625,54,51.75,-7505.75,1387.375,137,220,-1268.25,839.375,197.875,32.8750000000001,15.5,115.375,-13.3749999999999,16.8750000000002,-7330.75,1308.75,175.5,230.25,-1307.125,891.375,189.875,56.7500000000001,-19.125,61.7500000000001,-235.875,334.75,-2967.625,604.625,113.625,94.125,-1559.125,1020.375,141.625,49.3749999999999,-67.375,236.125,-426.25,482.25,3851.25,246.625,206.625,24.75,-1499.375
"1",4463,391.749999999999,301,-687.75,-1158.75,696.25,223.5,-161.75,-80.1249999999999,-15.1249999999995,29.875,96.1249999999999,-3005,10112.625,262.25,385,-1516.125,-104.5,490.25,122.125,-204.625,-89.1249999999995,38.1249999999998,-385.749999999999,44.3749999999997,-8334.75,2499.875,239.375,132.375000000001,-2049.5,811.249999999999,290.375,-8.99999999999993,-158.625,-69.2500000000003,133.625,-205.25,-6.87499999999993,-4333.125,998.124999999999,258.125,-190.124999999999,-1794.375,788.249999999999,258.5,-123.875,-145.375,-37.4999999999998,172.25,-130.375,-163.75,-1212.375,693.75,292.249999999999,-366.625,-1581.25,795.5,248.5,-172.25,-121.875,-42.4999999999998,161,-140.125,-67.7499999999998,-2554.375,756.875,312.000000000001,-245.125,-1668.75,778.625,253.625,-143.25,-169.375,-70.4999999999997,84.3749999999998,95.25,-1798.125,9218.87499999999,258.125,372.749999999999,-1319.25,-381.875,534,115.25,-192.999999999999,-93.7499999999996,-28.375,-170.75,50.1250000000001,-5608.875,8641.74999999999,234.124999999999,393.75,-1847.625,391.375,423.5,79.1249999999997,-202.625,-90.1250000000002,-24.4999999999999,-457.25,86.3750000000001,-9002.25,4548.375,207.75,248,-2118.875,738.875,285,22.9999999999996,-199.5,-27.2499999999997,26.8749999999997,-462.625,64,-9351.12499999999,3684.25,249.375000000001,222.25,-2158.375,772.625,304.625,-13.9999999999998,-194,-59.9999999999998,146.625,60,-732.625
"1",25,-31.7499999999997,6802.125,4012,372.375,908,2434.25,-2016.5,-1809.625,-76.8749999999998,-165.625,-79.7500000000002,0.499999999999754,-9.00000000000015,-21.0000000000001,-29,123.25,68.6249999999998,3331.5,-1279.125,368.125,748.749999999998,2029.625,-361.249999999999,-2454,-56.1249999999999,-175.125,-99.1249999999999,-29.2500000000002,-64.2500000000002,-7.62500000000023,10.6250000000001,88.8749999999997,16.2500000000001,4204.375,327.75,336.999999999999,782.875,1983.75,-753.5,-2093,-56.2500000000003,-163,-50.0000000000007,-44.6250000000002,-13,-0.624999999999993,31.3749999999996,128,45.9999999999995,2960.875,-1871.375,359.999999999999,757.249999999999,2118.625,-220.499999999999,-2663.375,-92.2499999999996,-81.6249999999998,-136.25,-67.7499999999999,2.00000000000004,1.87500000000011,36.1249999999998,164.5,47.6249999999991,1758.5,-4458.375,361.624999999999,702,2049,416.749999999999,-3096.625,-122,-103.75,-129.375,-13,-24.1250000000001,-32.7500000000007,-18.8749999999999,188.375,47.3750000000003,2639,-2647,370.874999999999,766.749999999999,2192.25,-106.375000000001,-2821,-124.25,-124.75,-116.375,-64.25,-30.2500000000003,-31.7500000000001,-7.00000000000069,26.7499999999995,-54.8750000000005,6824.75,4079.75,450.249999999999,955.874999999998,2490.375,-2170.625,-1751.5,-75.7499999999996,-166.625,-120.375,-50.2500000000002,-58.7500000000003,-6.87500000000024,-7.50000000000003,-89.1250000000005,-87.9999999999993,6217.875,4223.25,474.250000000001,1086.75,2575.25,-3099.125,-1337.5,-55.4999999999999,-149.25,-82.5000000000004,-72.25,0.74999999999983,-19.3749999999999,52.2499999999998
"1",-1790.25,-333.375,-290.125,-124,-27.2499999999999,-22.5,155.250000000001,-79.0000000000004,283.499999999999,-12632.5,504.124999999999,804.375,2029.5,1186,-3356,-773.749999999999,-316.75,-213.499999999999,-61.3749999999999,21.7499999999999,1.49999999999969,-47.1250000000001,-42.6249999999999,8061.75,4158.125,556.75,1260.75,2398,-1465.75,-2142.75,-315.25,-275.375,-107.375,-26.1250000000002,-9.62499999999982,-3.74999999999981,178.625,-74.1250000000001,201.125,-12612,647.75,889.874999999999,2058.875,1590.125,-3693.75,-947.5,-276,-211.125,-62.875,-6.37500000000007,-3.50000000000038,-5.12499999999973,-62.3749999999994,-123.25,8611.5,4567.25,581.375,1324.75,2462.875,-1280.375,-2339.25,-409.875,-260.375,-120.875,-42.6249999999996,-22.8750000000003,-18.5000000000007,-64.6250000000003,-58.2500000000001,8269.5,4586.125,529.874999999999,1305.625,2288,-1368.625,-2087.75,-390.75,-316.5,-176.875,-33.7499999999998,-10.8750000000004,33.5000000000003,-231.000000000001,-83.3750000000004,5891.75,4075.75,643.5,1496,2279.625,-2365.625,-1732.25,-304.875,-268.25,-78.4999999999999,17.8749999999999,-15.2500000000002,12.0000000000001,184.75,75.2500000000001,2394.875,-6518.125,533,1107.125,2417.375,389.125,-3360.625,-620.25,-297.499999999999,-119.375,-19.8749999999998,-54,-13.8749999999999,203.375,46,1751.875,-9134.75,499.25,998.749999999999,2320.5,627.124999999999,-3379.375,-640.5,-373.875,-126.125,-13.6249999999999,-19.375,4.87499999999985,-232.875
"1",-2.00000000000045,-10970.125,3582.75,910.125,1360.25,-1547.25,-1797.875,-131.125,-91.1250000000005,97.6249999999997,-150.25,-5445.25,13549.25,864.874999999999,1159.25,399.25,-3545.5,-266,-145.625,238.25,-383,165.749999999999,-2270,1295.375,937,1260.75,-2482.5,-1075.875,-161,-57.8749999999997,-175,-44.2499999999996,-9920.37499999999,9498.74999999999,922,1166,-376.249999999999,-2713.375,-209.000000000001,-147,260.25,-240,-1156.875,9629.24999999999,949.499999999999,1023.5,780.625,-3241,-520.124999999999,-170.25,123,-272.625,67.6249999999993,-9676.62499999999,2950.625,971.374999999999,1294.625,-1678.875,-1568.125,-154.75,-44.2500000000005,70.6249999999998,-7.74999999999932,-7864.25,11778.125,995.874999999999,1262.75,134.499999999999,-3097.625,-169.375,-74.7499999999998,328.875,-215.125,-966.75,9712.74999999999,905.875,1057.25,954.625,-3385.125,-515,-143.25,237.625,-413.75,54.8749999999998,1083.625,1062,958.124999999999,1206.375,-2854.875,-902.249999999999,-230.5,145.75,-342.875,126.5,-2728.125,1345.25,935.124999999999,1271.75,-2610.75,-1087.625,-171.875,107.000000000001,-345.499999999999,154.75,-3054.75,1401.125,979.624999999999,1286.75,-2543.625,-1003.875,-143,161.75,-272.999999999999,133,-6786.375,2054.625,1020.5,1332.875,-2061.25,-1191.875,-80,180.25,-185.375,63.2499999999997,-10235,3473.625,976,1303.875
"1",214.500000000001,-1216.5,379.624999999996,289.000000000001,25.999999999999,145.375000000001,-88.6250000000014,75.7500000000011,-8148.62499999999,5124.375,243.374999999999,269.999999999999,-1288.125,439.874999999999,253.624999999999,-1.2499999999997,91.5000000000016,-138,33.3750000000006,-8421.75,6051,226.249999999999,234.25,-1313.75,298.374999999997,300.5,11.5000000000007,92.6249999999999,-174.749999999999,-2.75000000000043,-8707.49999999999,6509.74999999999,224.874999999999,237.375,-1330.125,257.499999999997,330.75,4.49999999999985,116.125000000002,-129.375000000002,32.1249999999993,-9006.375,6120.75,222.75,258.124999999999,-1332.375,306.750000000002,290.874999999998,-13.2499999999981,154.625000000001,-139.624999999999,31.6249999999999,-9033.625,5795,194.000000000001,267.625,-1314.625,329.375000000002,269.624999999999,45.2500000000021,217.000000000001,-53.7500000000027,26.2499999999984,-9049.99999999999,4182.875,207.5,274.875,-1476.5,448.124999999999,211.625000000002,-36.1249999999988,221.499999999998,-119.250000000001,36.4999999999967,-7935.625,2537.24999999999,209.749999999999,205.5,-1637,602.875,118.125,-49.375000000001,226.999999999999,-52.3750000000011,49.0000000000036,-3565,954.249999999998,137.875,39.1249999999993,-1850,726.500000000001,41.2500000000005,-7.00000000000067,20.7500000000024,-5.12499999999973,-636.375,4026.375,507.624999999998,269.375,-116.25,-1535.625,856.875,124.375000000001,94.7500000000005,-90.125,76.6249999999994,-1809.25,8312.875,386.000000000001,235.499999999999,-343.749999999998,-1279,635.375,33.75,34.6250000000007,-306.249999999999,33.1249999999994,-3729.375,9891.25,275.124999999999,240.875000000001,-589.125,-973.499999999999,530.75,-20.1250000000008,15.5,-390.875000000001,-20.2500000000006
"1",-103.125,-118.75,-185.375,-15.125,-6622.5,2331.375,76,696,26.8750000000001,-474.5,107.75,-150.875,211.125,-367.5,1237.125,2389.125,152.25,372.25,440.125,-369.5,4.87499999999996,-67.5,-133.25,68.6250000000001,-76.75,-4352.625,4115.875,109.5,701.375,59.7500000000001,-504.5,103.625,-191.625,50.4999999999999,-357.5,420,-4696.875,212.625,214,455.375,-132,-59.0000000000001,-34.375,-173.625,81.2499999999996,-121.5,-2059.25,5082.25,100.5,666.25,85.8749999999997,-592.625,102.875,-154.25,-69.375,-360.375,155,-7626.25,393.125,271.625,673.499999999999,-184.375,-326.125,62.7499999999999,-102.75,204,-376.375,1349.625,3429.5,124.5,352.125,394.375,-351.25,-20.5000000000001,-73.3750000000001,-159.5,169.25,-86.6249999999999,-1747.625,5355.5,116.625,569,66.2499999999998,-370.75,122.25,-160,35.7499999999999,-292.875,273.75,-5419.375,230.5,197.375,480.625,-90.1249999999997,-104.125,21.125,-151.25,87.25,-72.25,-2377.25,5166.25,121.5,750.75,125.25,-670.75,128,-142,52.2500000000001,-346.875,467,-4689.25,283,299.625,610.499999999999,-140.75,-87,-6.37500000000022,-166.25,142.75,-99.75,-2553,4809.625,95.2499999999999,517.125,93.8749999999997,-386.125,111.25,-184.125
"1",-42.625,10.375,5.49999999999998,6.375,1.25,-18.875,-26.75,-8529.625,1503,230.5,665,475.5,-1336,-76.125,5.625,-116.625,-13,230.625,-241.5,-785.999999999999,6363.25,196,464.625,552.875,-1324.375,-152,54.25,-57.5,-68.875,-76.125,-26.625,150.75,-425,1042.5,6591.375,154.125,427.5,815.749999999999,-1107.5,-397.5,20.125,-65.3749999999999,-88.625,-4.62500000000001,-23.1249999999999,8.12499999999998,73.6249999999999,17.875,-8352.24999999999,744,234.875,821,223.625,-1205.75,-35.5000000000001,-4.25000000000008,-84.7499999999999,-28.875,-37.8749999999999,-21.8750000000001,222.125,-370.375,14.125,7496.25,200.5,461.125,770.249999999999,-1419.375,-271.125,22.75,-67.7499999999999,-71.875,-11.5,15.4999999999999,-5.24999999999995,221.25,-59.625,-8011.875,1773.5,165.25,633,421.625,-1239.75,-85.25,35.25,-103.5,-24.375,3.5,17.125,126.75,-382.125,1207.875,3934.625,159,310.625,743.375,-729.874999999999,-529.75,91.2499999999999,-19.625,-142.125,-57.9999999999999,-23.75,-18.25,255.5,-168.125,-5290.5,4353.75,197.25,651.5,600.25,-1645.5,-125,65.2499999999999,-97.2499999999999,-99.75,-42.625,39.2499999999999,37.625,-188,455.75,-3026.125,282.75,331.375,902.499999999999,-219.5,-877.625,-16.375
"1",-28.6250000000002,-4.74999999999958,175.75,-392.375,-11.1249999999995,1350.125,3813.75,315.625000000001,302.625,1184.75,1574,-3069,-58.6250000000003,-12.2500000000001,-141.499999999999,-51.7499999999994,-20.4999999999997,-26.7500000000006,-41.6250000000004,-28.6250000000001,-203.875,-60.6250000000001,25.3750000000001,-6629.125,1306.625,188.25,620.625,2013.75,-2811.375,-445.625,72.8749999999998,-135.249999999999,-66.4999999999998,-49.2499999999997,-19.6249999999996,-24.1250000000001,-19.4999999999999,202.125000000001,-312.750000000001,18.7499999999993,1147.5,4691.625,297.625,332.375,1334.625,1393.375,-2969,-26.3750000000003,-4.4999999999993,-144.75,-77.5000000000009,-28.3749999999997,30.25,-0.375000000000122,-6.24999999999987,170.749999999999,-48.7500000000002,40.3749999999992,-5879,4013.5,174.125,469.499999999999,1826.875,-1189.5,-1112.375,38.8749999999994,-91.9999999999979,-107.5,-55.3750000000004,-15.8749999999994,-13.7500000000008,-22.7499999999984,135.000000000001,-369.125000000001,-13.2500000000004,1340.75,2650.125,309.874999999999,249.75,1095.625,1656.125,-3075,-92.2500000000005,26.375,-144.75,-35.249999999998,-22.5000000000001,-6.37499999999983,-8.87500000000013,-1.00000000000033,224.25,-127.000000000001,32.2500000000003,-2515.25,5560.125,268.375,473.125,1754.375,-253.999999999999,-1770.625,55.3749999999994,-45.1249999999997,-120.874999999998,-66.3750000000005,-6.75000000000062,-7.87500000000093,-25.4999999999983,-1.50000000000078,-5.75000000000024,-20.2499999999998,52.4999999999994,-7496,2624.25,199.125,558,1916.375,-2009.75,-734.875,72.2500000000005,-95.7500000000009,-68.7500000000003,21.7499999999989,-32.8749999999998,6.25000000000025,-20.7499999999994,93.2500000000004,-353.5,-24.5000000000006
"1",-2867,746.124999999999,400.875,1609.625,-1077.875,-861.75,62.625,-35.1249999999995,-87.8749999999997,-27.3749999999999,-12.8749999999999,115.375,-325.125,9.87500000000041,642.125,-5209.875,1094.5,398.75,1483.25,-511,-946.749999999999,83.5000000000008,32.1250000000002,-28.8750000000005,11.5000000000002,47.4999999999997,229.125,-372.625,79.8750000000001,1376.375,-1.25000000000117,561.999999999999,358.75,1545.25,-1323.125,-586.25,15.75,-0.75000000000017,-50.2499999999996,-19.1250000000001,-15.7500000000006,224.375,-394.375,-18.1249999999996,1439.25,2552.625,392.625,479.625,1706.625,-1973.875,-577.75,2.12500000000061,-80.7499999999995,-95.5000000000001,-99.3750000000004,-53.2500000000007,222.749999999999,-454.624999999999,-3.62499999999968,1468.75,3869.5,394.249999999999,500,1737.375,-2034.25,-324.999999999999,87.6249999999997,24.375,-49.6249999999996,-14.6250000000004,57.3749999999997,257.75,-232.249999999999,37.6249999999995,-1311,5675.25,235.625,666.125,1578,-2481.625,-150.75,66.9999999999998,-30.5000000000007,-36.0000000000004,-45.25,10.7500000000004,190.375,-145.125,21.1250000000006,-6885.5,4295.5,249.875,937.75,1145.75,-2398.125,-76.3749999999996,24.499999999999,-92.2499999999995,-61.6249999999996,-31.3749999999997,135.125,-360,-4.87500000000028,1416,886.249999999999,522.875,460.249999999999,1716.5,-1660.125,-541.125,83.2499999999999,-16.5,-7.87500000000036,31.5,33.3749999999996,308,-190.375,67.6250000000003,-8144.875,3725.375,301.125,1087,905,-2023.625,-5.37500000000008,41.9999999999999,-82.75,-62.8749999999999
"1",-64.125,-28.625,3.87499999999981,229.625,-174.625,-8443.62499999999,1132.125,161.625,-340.625,-691.624999999999,121,-49.3749999999998,-81.3750000000001,-21.75,164.125,-150.375,-8576.37499999999,959.624999999999,290,-111.625,-800.249999999999,28.375,-72.7499999999999,-65.5000000000001,-31.1250000000001,210.25,-200,-8825.99999999999,935.749999999999,248.875,-73.875,-829.25,9.62499999999986,-45.6249999999999,-32.6250000000001,4.37500000000012,82.1249999999998,-137.25,-6100.5,539,240.125,-336.125,-410.25,96.375,-29.1249999999998,-44.875,-11.9999999999999,-64.25,-74.125,-1737,300.125,201.5,-550.125,-214.625,120.25,-40.8749999999999,-40.2499999999999,3.62500000000007,-33.3749999999999,-68.8749999999999,-2990.625,334.5,313.874999999999,-273,-595.499999999999,15.4999999999999,-43.3749999999999,-60.5000000000003,2.24999999999981,140.375,-145.5,-7149.25,578.749999999999,280,-190.249999999999,-629.25,14.7499999999999,3.87499999999991,-10.875,-11.2500000000002,169.75,-134.625,-7549.75,755.625,190.75,-351.749999999999,-553.75,110.5,-63.1249999999999,-72.0000000000001,-18.5000000000001,200.375,-172.75,-8503.125,971.874999999999,271.25,-181,-746.999999999999,39.75,-55.3750000000001,-49.6250000000001,-5.12500000000001,241.625,-198.75,-8945.37499999999,1606.875,299.125,-24.9999999999999,-953.125,-14.875,-39.3750000000002,-19.625,-14.625,249.875,-187.75,-9060.37499999999,1470.125,210,-137.125,-712.874999999999,90.8750000000001,-33.625,-38.125,-5.62500000000004,152,-153.5,-7775.5,796.5
"1",1359.375,114.75,-442.875,-854.124999999999,429.5,45.5000000000001,-78.9999999999999,-84.2499999999999,24,-84.375,-1707.375,8670.625,217.25,-26,-1293.625,618.375,161.125,-26.7499999999999,-87.6249999999999,75.9999999999999,-178.625,41.7499999999996,-4072.625,497.625,210.75,-660.625,-152.5,119,38.2500000000001,-26.75,-30.6249999999999,-147.125,-155.375,-5418.375,5818.75,166.375,-191.375,-1191.5,522.5,102.25,-44.2500000000001,-74.3749999999996,182.5,-120.125,-140.25,5844.375,166.625,55.75,-1138.875,434.124999999999,280,81.3749999999998,-46.3749999999999,-16.625,-279.125,-98.2500000000002,-9203,1641.5,181,-433,-742.374999999999,295.375,95,-39.625,-56.3749999999999,112.5,-163,-1531.5,9662.99999999999,228.25,34.875,-1174.25,518.624999999999,156,66.9999999999999,-73.1249999999999,208.75,-128,35.75,-23.2499999999992,295.5,60.125,-811.375,101.75,355.125,-57.375,-90.2499999999999,-22.875,-317.25,12.9999999999997,-7498.875,1976.75,151,-337,-890,395.25,81.25,-97,-80.125,12.5000000000001,-175,-2255.75,8558.5,266,-48,-1278.375,483.75,144.625,-77.2499999999999,-19.375,127.625,-127,-0.374999999999968,3895.125,295,136.375,-881,163.875,91.6249999999997,36.125,-44.8750000000003,-39.6250000000003,-236.75,-23.4999999999997,-8214.25,1007.625,140.25,-569.25
"1",1047,336.25,-19.0000000000004,22.8749999999999,-38.1250000000014,-83.0000000000003,-3808.375,3179.75,99.1250000000002,-416.374999999999,-1345,969.875,199.75,-48.2500000000002,-31.2499999999997,-194.5,-31.0000000000007,-5291.75,1605.75,116.375,-573.75,-1223.5,935.75,159.75,-75.0000000000001,-46.2499999999998,-70.4999999999997,-121.375,-4785.625,2653.375,140.5,-437.25,-1412.625,993.124999999999,217.624999999999,-13.7499999999997,-2.50000000000072,-137.250000000001,-54.1250000000005,-6528.125,1178.75,200,-620.875,-1134.125,1020.75,159.375,12.7499999999995,28.2500000000014,-153.249999999999,23.8749999999996,-4724.375,297.125,102.5,-1008.75,-541.375,917.250000000002,72.6249999999999,3.7499999999995,95.0000000000001,-109.625,19.9999999999994,1727.875,198.875,38.0000000000001,-1324.5,147.499999999999,751,13.2499999999997,17.2500000000001,173.125,-151.125,-96.3749999999985,6250.75,89.2499999999995,-172,-1493.125,808.749999999998,448.999999999998,9.74999999999929,-17.1250000000011,-106.250000000001,-101.75,-4705.375,2366,96.8750000000001,-504.625000000001,-1346.5,1036.125,226.749999999999,-61.5000000000008,-4.37499999999997,-223.375,-11.8749999999995,-4789.75,272.875,75.7500000000014,-1009.375,-458.375,781.375000000001,43.4999999999998,-29.8750000000012,107,-89.6249999999992,0.75000000000114,3072.25,182.625,-13.6249999999979,-1406.625,368.75,631,-10.2499999999995,0.749999999999804,151.375000000001,-155.375000000001,-869,6776.875,171.125000000001,-236.499999999999,-1611.625,1035,411.75,-13.1250000000008,0.250000000001008,-47.8750000000011,-141.124999999999,-5599.75,2209.25,172.624999999999
"1",105.625,-106.25,-21.125,-44.1249999999997,475.375,-23.1249999999996,869.624999999999,5736.875,131.5,118.25,-476.375,303.625,49.7499999999997,-19.9999999999998,-35.8749999999999,20.7499999999999,-258.25,-47.6250000000004,-5986,2982.375,134.875,70.5,-653.624999999999,285.125,-12.3750000000002,-19.2500000000001,-25.7499999999999,129,-788.5,50.4999999999999,-7318.125,811.375,142.375,56.3749999999999,-461.75,188,-88.0000000000001,-79.1249999999998,-30.6249999999997,451.875,-378.125,633.125,1162.75,260.125,134.875,-231.375,54.0000000000001,51.2500000000001,-113.375,-44.3750000000001,-59.2500000000003,-36.2499999999996,-71.7499999999998,-4483.875,4218.75,109.5,81.9999999999999,-692.625,297,-22.0000000000004,-73.5000000000006,-67.0000000000003,273.249999999999,-444.875,425.125,-1616.25,324.375,129,-193.625,-21.0000000000004,117,-53.4999999999997,-81.1249999999998,-23.2499999999997,399.624999999999,23.2500000000001,-866.499999999999,6695.125,130.5,163.625,-572.25,362.625,7.37499999999991,-140.5,-44.8749999999998,43.0000000000004,-587.125,-11.875,-8092.875,1561.125,135.625,46.6249999999999,-574.875,220.625,-74.25,-122.375,-32.1249999999998,367.625,-250.875,661.125,3150.125,191.75,144.875,-313.875,187.125,35.75,-128.25,-0.625000000000075,-19.2499999999998,-39.2500000000002,-29.25,-4749.5,3932.75,89.875,98.2500000000001,-677.25,342.25,-9.00000000000015,-80.9999999999997,-35.1250000000002,-6.24999999999978,-228.75,-65.1249999999997,-6327.75,3008.5,139.375,102.375,-690.624999999999
"1",302.5,808.500000000001,-1540,-89.8749999999979,83.3749999999993,-25.2500000000019,0.875000000002285,7.74999999999931,103.625000000001,-26.0000000000001,56.3750000000028,1589.625,4261.24999999999,282.625,521.124999999999,796.249999999999,-1652.625,-78.3750000000005,53.1249999999987,24.7499999999992,-17.7499999999984,111.5,-32.2500000000004,-281.125,159.624999999998,607.500000000001,7674.25,125.500000000003,678.499999999997,402.750000000001,-1169.75,50.6250000000002,87.7499999999999,-104.625,-145.125000000001,4.37499999999921,-3.00000000000062,-318.125000000003,91.2500000000028,-35.6249999999987,7851.99999999999,205.875,618.250000000001,195.625,-1100.125,-41.6250000000008,109.000000000001,-111.25,-161.125000000003,122.124999999999,198.750000000001,-246.749999999998,52.9999999999986,-8234.25,3101.75,327.875000000001,895.375,-793,-497.500000000001,53.4999999999998,187.749999999999,-135.999999999996,-71.2499999999994,66.2499999999979,308.749999999999,-121.125000000001,-122,-8747.5,1253.125,411.374999999997,935.624999999996,-1282.375,-339.000000000001,75.8749999999966,4.12499999999998,-299.625000000001,-100.75,56.7500000000003,22.2499999999971,18.625000000001,1400.25,1911.625,290.124999999999,448.75,819.249999999998,-1442.125,-110.375000000002,8.24999999999796,1.12499999999864,-5.49999999999985,-141.5,88.5000000000013,-455.249999999996,26.7499999999994,-3472.25,4937,121.249999999999,696.124999999998,-225.499999999999,-773.374999999999,-39.0000000000011,26.7499999999992,16.375,-33.25,25.4999999999983,130.374999999999,-72.2499999999987,600.375000000001,-4095.5,365.624999999999,448.875,875.75,-1873.25,-128.874999999997,160.499999999998,72.7500000000008,-377.249999999998,-283.875,-90.6250000000002,52.250000000001,19.9999999999985,1447.625,4985,148.375000000002,615.750000000002,593.249999999999,-1485.375,-55.0000000000017
"1",422.25,637.875,-739.125,-582.5,-6.74999999999999,-66.5,-67.625,-60.125,-9.87499999999999,-12.125,-16.125,25.25,-312.625,-67.4999999999999,3661.875,708.125,260.625,581.75,207.25,-1333.5,-78.1249999999999,-23.875,-82.2499999999999,-120.5,-93.8749999999999,-32.4999999999999,-42.8749999999999,-23.625,131.875,-235.625,141.875,-4898.25,-90.9999999999999,383.375,704.75,-293.124999999999,-1013.125,-27.875,-18.5,-120.875,-60.75,-20,-21.875,-9.12500000000004,-9.375,186.125,-69.8750000000001,987.75,-5408.375,98.2499999999999,481.375,744.75,-678.75,-707.375,48.75,-63,-46.125,-40.75,-6.75000000000002,13,-9.75000000000003,16.625,150.75,46.375,2939.875,-2501.25,173.875,491,650.75,-1096.25,-449.25,47.25,-83.875,-125.75,-31,-17.875,-16.25,-12.5,-11.75,117.125,-6.125,3241.5,-2206.5,162.375,457.625,634.75,-1078.125,-418,38,-97.5,-117.125,-33.375,-36.25,18.375,-33.75,2.12499999999999,-118.75,-8.37500000000004,5696.875,1040.125,231.125,532.249999999999,444.875,-1442.75,-208.125,15.75,-96,-70.25,-25.5,-28.8749999999999,-34.125,-10.1250000000001,-14,-84.5,10.875,5735.25,932,308.875,508.25,474.375,-1363.125,-197.625,29.75,-98.5,-69.375,-27.125,2.50000000000002,-31.25
"1",-7.74999999999983,19.2500000000001,12.25,201.625,-472.5,81.8750000000001,-6533.625,1321,453.124999999999,1586.25,-1626.625,-633.874999999999,65.1249999999999,2.37499999999955,-105.625,-42.4999999999994,-42.8749999999997,-52.8750000000001,93.1249999999999,-377.375,-15.125,-2490.875,2401,332.5,1363,-694.374999999999,-997.75,1.50000000000024,-14.2499999999998,-143,-39.7499999999999,-14.375,1.75000000000021,78.8749999999999,-183.875,-79.875,1899.75,4413.75,382,1162.625,454.999999999999,-1721.5,12.1249999999999,22.8750000000012,-93.1250000000006,-103.875,-71.7499999999998,-61.625,-40.6249999999999,185,-193.875,2801.5,2033.75,386.625,733.375,1508,-2918.375,-138.25,60.9999999999999,-80,-94.7499999999997,-25.4999999999998,-8.75000000000012,-28.0000000000001,240.125,-319.999999999999,843.875,-6853.375,555.5,546.5,1745.125,-2847.625,-276.5,77.1249999999999,-12,-80.3749999999998,-39.875,-24.1249999999999,4.74999999999987,218.875,-308,1094.25,-5086.375,554.75,568.25,1690.625,-2969.875,-190.25,83.1249999999998,-33.0000000000002,-108.625,-77.1250000000003,-15.625,2.75000000000009,203.75,-446.375,159.25,-7326.25,1054.125,454.625,1611.375,-1948.625,-570.125,17.7500000000002,-69.9999999999999,-212.375,-136.75,-105.375,-82.3749999999999,0.250000000000028,-419.5,-88.75,-987.25,3303.625,346.125,1273.375,-233.25,-1285.5,17.5,64.2500000000001,-110.25,-63.375,-44.125,-24.375,73.25,-153,-22.5,2027.375
"1",-2137.875,6012,420.75,1179.625,1399.875,-2733.75,-414.125,17.6249999999999,-222.125,-97.4999999999999,-45,354.5,-320.75,2383.875,-6770.125,1580.75,587.375,1787.125,-555.5,-1728.625,37.375,-104.125,-172.5,-55.75,204.875,-624.5,87.125,-3819.75,5191.875,462.25,1197.5,1222.625,-2573.375,-282.375,4.50000000000004,-183.125,-28.125,-42.875,377.75,-302.5,1587.5,-9088.37499999999,1946.125,617.25,1842.625,-306.75,-1991.375,-19.25,-99.3749999999999,-112.125,-42,48.875,-277.75,62.9999999999999,4047.25,3400.625,580.125,912.499999999999,1854.5,-2085.5,-866.374999999999,26.3749999999999,-184.375,-97.6249999999999,-32.375,427.75,-494.875,788.499999999999,-10467.125,3056,484,1624.375,200.249999999999,-2268.625,-23.75,-95.2499999999999,-146.875,-45.875,197.5,-685.75,60.75,-4249.25,5212,428.625,1162.5,1180.5,-2568.625,-297.875,27.6249999999998,-174.5,-68.75,-35.125,44.8749999999999,11.9999999999999,4400.5,352.125,680.75,854.5,1925.75,-1701.125,-1109.375,13.625,-154.625,-117.5,-44.1249999999999,360,-310.5,2032.5,-8102,1646.5,608.75,1858.5,-595.25,-1859.125,-26.625,-115.625,-169.375,-78.8749999999999,374.375,-487.125,898.249999999999,-10576.75,2689.75,510.625,1666.625,-2.99999999999919,-2238,-65.4999999999998
"1",-3059.375,-280.625,-144.375,-277.625,125.875,-383.75,17.1250000000002,-3899.125,1203.25,811.875,1994.125,-952.25,-1959.625,44.6249999999996,-321,-219.125,4.00000000000209,-336.375,-148,-7069.625,3250.75,630.5,1702.125,446.625,-2903.25,1.12500000000031,-165.125,-289.374999999999,-105.625000000001,305.75,-127.5,1113,4717.625,427.5,1134.625,1917.25,-2342.125,-1093.625,36.3750000000001,-316.5,-203.999999999999,2.12499999999988,-43.6250000000017,143.375,-141.625000000001,-1897,5698.375,513.625,1450.125,1590.25,-3195.375,-718,54.1249999999999,-288.375,-120.874999999999,-27.7500000000002,4.37499999999949,-43.249999999999,-106.375,-4156.875,4870,561.75,1564.75,1343.125,-3253.875,-379.375,-47.2499999999998,-300.625,-73.8749999999991,-51.5000000000006,-39.2499999999992,230.624999999998,-124.999999999999,-963.250000000001,5853.875,507.125,1389.5,1678.125,-2985.375,-783.625,-15.8750000000003,-305,-83.7500000000004,-28.5000000000013,162.875,-485.125000000001,70.2499999999996,-4731,1261.375,818.875,2039.625,-472.5,-2557.875,-30.1250000000001,-201.124999999999,-210.874999999998,-100.125,234.625,-403.500000000001,141.624999999999,-3944.75,1115.625,802.5,2092,-806.375,-2296.25,8.8749999999989,-223.874999999998,-167.125,-77.7499999999997,-33.2499999999995,-231.624999999999,-171.999999999998,-4627.375,4114.75,511.25,1610.125,1045.875,-3189.625,-229.25,-101.499999999999,-274.874999999999,-89.6250000000017,-52.3750000000002,-85.1250000000004,-106.625000000001,-3461.125,4414.625
"1",839.75,415.624999999999,160,-15.75,-63.3749999999992,-19.875,-33.4999999999993,291.375,-468.875,-30.7499999999998,-10765.25,5385,94.2499999999999,-230.25,-1654.75,1417.125,345,176.25,-46.6250000000003,334.875,-491.75,-31.625,-8304.87499999999,7654.875,92.9999999999999,-184,-1512.75,1408.125,271.249999999999,125.5,-11.8750000000003,162.25,-369,-67.4999999999999,-3451.375,10076.125,97.3750000000002,-155.125,-1393.625,964.124999999999,493.375,155,12.7499999999998,4.49999999999999,-147.875,-43.1249999999999,-554.249999999999,7946.99999999999,213.125,-89.0000000000003,-1133,313.625,666.249999999999,152.875,-2.00000000000002,-40.5000000000001,159.875,-417.125,-65.625,-7480.875,7536.12499999999,72.5000000000001,-177.124999999999,-1584.625,1334,282.25,198,-38.2500000000001,-11,-4.00000000000013,29.2500000000003,-231.875,-53.9999999999999,-2046.625,10029.75,157.75,-126.125,-1257.125,325.750000000001,654.749999999999,150.875,-0.125000000000005,-28.375,-44.125,-98.8749999999997,256.5,4469.375,349.875,-37.8750000000007,-902.624999999999,-327.125,860.374999999999,109.5,68.3750000000001,-38.3750000000003,-14.3750000000003,29.1249999999999,406.125,-413,28.3749999999997,-11416.875,4004.125,21.6249999999998,-304.875,-1633.625,1504.25,275.5,158.875,-49.1249999999998,376.5,-250.5,122.5,-8846.37499999999,1726.125,14.1250000000001,-494,-1261.625,1352.5,127.125,125.25,-51.1249999999998,-22.9999999999998,19.6250000000003,76.3749999999998,-99.8750000000011,-62.75,-1216.375,8998.74999999999
"1",-672.124999999999,-146.375,68.0000000000007,37.1250000000004,56.1249999999962,57.7500000000007,481.875,-4660.375,346.874999999999,10.8750000000011,473.375000000001,-15.9999999999991,-345.375,-30.3750000000003,37.6249999999997,48.0000000000004,-183.374999999999,10.625000000001,-334.375,2554.625,-18.7500000000004,153.125000000001,559.125,-582.624999999999,-116.125000000001,52.7500000000011,-2.37499999999865,34.7500000000008,-6.12500000000024,22.9999999999994,-5071.62499999999,811.500000000001,51.9999999999998,309.875000000001,237.625000000004,-416.25,40.625,30.0000000000005,-17.4999999999986,55.9999999999986,207.25,875.125000000001,-2655.5,187.625,65.7499999999994,478.500000000002,-96.3749999999988,-327.375000000001,18.7499999999969,20.3749999999998,-17.3749999999995,102,6.24999999999883,74.8749999999986,-5326,575.624999999999,-25.8750000000003,388.124999999999,266.625000000002,-417.749999999999,-55.6249999999981,12.7499999999994,-28.9999999999989,-51.9999999999997,24.0000000000017,141.624999999996,394.125000000001,-4055.625,392.249999999999,49.2500000000002,380.125000000001,117.25,-438.999999999999,50.4999999999989,29.0000000000005,4.49999999999943,-10.8749999999989,11.1249999999985,-177.624999999999,24.124999999999,397.999999999999,2687.625,-26.0000000000013,98.6250000000001,526.625000000001,-586.375,-59.3749999999995,56.9999999999996,17.2500000000012,-14.5000000000004,-6.49999999999864,36.3749999999974,-42.9999999999999,123.5,-5278.375,594.499999999999,-38.2500000000012,335.249999999999,383.000000000001,-465.749999999998,-13.6250000000003,38.8750000000004,-4.87499999999736,-13.2499999999982,-15.6249999999988,-201.750000000001,-30.9999999999992,-2082.5,1959.375,-40.7500000000005,116.500000000001,527.999999999998,-521.874999999999,-49.75,-2.99999999999871,61.9999999999999,27.1250000000011,1.25000000000058,-174.125,94.2499999999992,662.125000000001,2741,16.7500000000006,87.8750000000005,552.749999999999,-559.125,-53.7500000000035,65.4999999999977
"1",675.749999999998,-772.125,-141.874999999998,-13.8749999999989,-104.750000000001,136,428.499999999999,-3808.25,424.5,146.625000000002,697.875,-589.749999999998,-255.750000000001,-29.0000000000028,-105.125000000003,59.2499999999994,148.124999999999,-4953.75,611.874999999999,141.875000000001,696.749999999997,-392.375,-308.625,-22.4999999999991,-117.624999999999,-162.124999999997,40.7500000000027,-5415.375,1143.375,138.750000000001,656.874999999999,-78.0000000000005,-426.124999999998,1.74999999999873,-121.249999999999,-188.749999999998,-15.8749999999999,-4808.5,1594.25,158.750000000001,651.249999999998,-22.9999999999984,-554.999999999998,-11.7500000000027,-43.6249999999987,-189.750000000002,-35.5000000000003,-4756.5,1465.25,118.249999999999,699.250000000002,-3.62500000000022,-520.874999999999,-39.7500000000013,-163.375000000001,-277.375000000001,-6.6249999999999,-4615.75,1474,129.500000000001,590.624999999997,13.1249999999972,-544.125000000002,25.8750000000014,-88.5000000000012,-201.000000000003,-5.49999999999987,-4784.25,1471.25,93.6249999999966,611.875000000002,35.000000000001,-575.000000000001,5.6249999999999,-136.749999999998,-226.250000000001,25.3750000000019,-4456.12499999999,1692.5,80.000000000001,612.375000000001,94.9999999999972,-608,7.62500000000076,-110.25,-216.875,63.7499999999988,-3926.5,2005,154.875,632.999999999999,200.000000000001,-680.999999999999,34.7499999999989,-119.000000000002,-183.75,-15.2499999999995,-3973.75,1920.875,123.124999999999,631.375000000002,81.4999999999991,-582.750000000002,-25.9999999999988,-188.250000000003,-265.875000000003,19.6249999999997,-4630.75,1651.375,64.1250000000021,609.374999999999,3.37500000000042,-581.500000000002,8.12500000000263,-84.2500000000001,-208.624999999998,8.49999999999831,-4818.25,1505.25,113.875000000001,622.625,42.3749999999966,-544.625000000002,44.124999999998,-100.999999999999,-190.75,-17.2500000000022,-5242.75
"1",-556,4033.75,117.749999999998,639.375000000001,536.500000000001,-1274.5,-63.8749999999979,-179.625000000001,-3.62499999999976,162.124999999999,1752,3650.375,100.875,523.624999999999,797.5,-1484.75,-59.6250000000007,-122.249999999998,-118.000000000001,118.999999999999,1759.875,3737.125,136.750000000001,587.625,774.499999999998,-1463.375,-46.2500000000008,-181.374999999999,-387.250000000001,-108.375000000001,-6130.99999999999,1733.375,248.124999999999,866.750000000001,-314.750000000001,-694.375000000001,-117.500000000001,-165.249999999998,41.249999999999,609.625000000004,4268.625,142.25,686.749999999998,630.875000000001,-1309.25,38.8750000000001,-84.8749999999981,104.624999999999,1797.125,3912.25,251.249999999999,767.499999999998,795.124999999999,-1369.25,32.1249999999984,-55.3750000000002,89.5000000000005,1640.875,1289.875,314.374999999999,590.874999999998,1055.25,-1468.875,-11.5000000000017,-64.1250000000002,-250.5,274.124999999999,-6338.875,1053.375,364.375,1006.5,-785.125000000001,-336.874999999999,26.7499999999991,-174.625,-78.8749999999985,-3200.25,3067.375,149.124999999999,717.125,180.125000000001,-918.5,17.625,-98.3749999999985,45.4999999999985,1284.625,3840.25,152.750000000001,601.749999999999,729.375000000001,-1460.5,-70.6249999999999,-125.500000000001,-268.375000000001,-40.3749999999977,-4898.375,2675,214.125000000001,755.125,55.8750000000004,-986,-40.3750000000019,-227.124999999997,-163.375000000003,42.0000000000028,109.749999999997,1545.125,1839.5,191.375,345.999999999998,905.624999999997,-1395.625,-259.874999999999,-111.624999999998,-175.75,-85.0000000000017,-80.1250000000016,-78.9999999999999,2.3749999999981,-404.624999999998,4042.5,228.375000000001,631.624999999996,849.125,-1444.875,111,-107.375,-21.9999999999983
"1",-141.75,-55.8750000000001,-34.6250000000003,90.6249999999998,-181,-64.7500000000002,-6101,1763.875,441.5,1465.75,776.125,-2314.25,34.1250000000001,-99.5,-297.75,-119.125,-49.7500000000004,-14.875,328,-286.25,3767,2885.625,332.125,916.249999999999,2201.25,-3047.625,-468,46.0000000000001,-161.25,-191.125,-73.3749999999995,-42.1250000000001,25.2499999999998,35.9999999999999,-231.375,1742.875,4896.375,378.125,1138.375,1728.875,-3233.25,-159.125,-18.7499999999999,-245.75,-180.625,-40.3749999999995,-47.0000000000004,36.4999999999998,-87.6250000000001,-152,-2075.625,3220.625,409.125,1204.875,1253.25,-2776.25,-15.1250000000004,-81.8750000000002,-252.25,-163.625,-70.9999999999998,-40.4999999999998,195.75,-258.249999999999,12.3749999999998,-7072.625,1020.125,549,1371.625,375.500000000002,-1940.25,32.1250000000001,-193.875,-278.375,-103.125,-57,-34.125,75.75,-276.625,3111,3557.25,359,954.124999999999,1733.125,-2961.25,-130.875,9.12500000000009,-340.125,-137,-56.5,-15.3749999999999,103.25,-250.125,2426.125,4598.75,409.25,1125.375,1839.75,-3209,-145.375,5.62499999999977,-219.125,-135.5,-38.6250000000004,1.87500000000009,139.375,-214,2810.125,4686.25,387.499999999999,1086.875,1824.375,-3090.375,-180.25,-5.00000000000014,-197.75,-114.5,-32.3749999999999,-41.875,321.75,-270.375,3612.375,2188.125,271.999999999999,837.5,1832.875,-2572.625,-413.25
"1",-236.625,-170.125,-22.6249999999997,-9.74999999999979,163.25,-204.375,22.625,-7661.99999999999,720.875,402.624999999999,1780.125,1028.5,-2624.125,-55.2499999999995,-152.375,-170.375,-32.4999999999999,-16.8750000000002,268.125,-72.75,1825.375,-3691.125,87.7499999999999,683.375,2731.125,-2089,-1246.875,-38.6249999999997,-208.5,-124.75,-25.3750000000002,-19.6249999999996,211.375,-127.625,3262.875,-218.624999999999,154.75,774.624999999999,2916.25,-2971.25,-950.374999999999,-119.375,-236.25,-113.750000000001,-39.9999999999996,-47.4999999999995,243.25,-165,349.125,-7900.87499999999,286,562.749999999999,2217.375,-184.625,-2048.625,-101.25,-267.5,-167.25,-31.6249999999997,-48.3749999999998,-2.87499999999988,-209.375,-103.375,1430.125,2989.125,284.625,1207.25,2495.875,-3754.5,-192,-181.375,-231,-84.2500000000001,-28.6250000000001,-20.9999999999999,-100.25,-142,3773.375,3556.125,285.125,1055.375,2748.875,-3927,-287.999999999999,-95.250000000001,-224.875,-76.8749999999998,-36.8749999999999,20.5000000000003,-169,-135.875,1320.25,3838.375,358.625,1379.125,2705.5,-4114.625,-202.749999999999,-169.375,-209.25,-32.4999999999996,-40.2499999999998,-2.87499999999981,-59.7499999999996,-141.875,3826.75,4257.75,267.625000000001,1140.375,2896,-4111.5,-336.375,-160.624999999999,-230,-42.2499999999999,-34.6250000000003,-33.2499999999998,162.124999999999,-126.75,4243.375,635.749999999999,125.5,753.75,2629.125,-2921.875,-706.25,-115.25,-241.999999999999
"1",-130,-114.499999999999,-5588.25,1950.125,490.250000000001,1387.5,134.375,-1943.875,41.7500000000001,-152,-247.999999999999,-75.8750000000001,-23.6249999999998,-28.6249999999996,60.2499999999998,-65.5000000000008,-181,-4013.875,2413.75,445.625,1192.125,475.375,-2084.25,59.5000000000001,-161.75,-270.25,-63.5000000000003,-42.5000000000004,-29.2500000000002,307.5,-260.875,1360.125,-3974,303.25,644.624999999999,1439.625,-1398.375,-831.375,19.8750000000001,-333,-131.875,-42.6250000000003,-49.9999999999997,138.5,-211,78.4999999999999,-6733.125,1175.25,503.249999999998,1482.5,-413.624999999999,-1637.125,61.2500000000003,-258.125,-223.75,-64.8749999999998,-35.999999999999,41.625,-88.375,-171.625,-5060.125,2725.75,475.625,1492.875,310.875,-2207.5,15.5,-135.25,-265.249999999999,-76.0000000000002,-10.2500000000004,-60.3750000000008,305.25,-273.750000000001,1845,-1309.25,262.25,797.374999999999,1555.375,-1943.125,-662.25,26.1249999999998,-244.375,-176.375,-43.875,-15.1249999999994,-61.1249999999995,302.125,-307.625,2095,-663.125,257.625,781.874999999999,1404.625,-1848.375,-558.875,13.1249999999997,-279.624999999999,-159.875,-32.8750000000001,-15.5000000000005,-47.0000000000002,77.0000000000009,-47.1249999999999,-139.874999999999,-4103.625,2263.125,449.25,1177.25,569.624999999999,-2091.25,60.8749999999999,-185.75,-260.5,-49.7499999999999,-36.4999999999998,-27.5000000000001,95.1249999999997,-55.2499999999997,-124.125,-4552.5,2374.375,439.999999999999,1218.875,522.249999999999,-2145.875,62.3750000000003,-212.624999999999
"1",-1758.125,-355.375,-151.375,-32.2499999999999,-131.625,4171.25,2477.375,294.875,892.874999999999,1643.25,-1735.25,-947.249999999999,-37.2499999999999,-54.7499999999998,-112.5,-70.7499999999997,-17.6249999999995,-97.8749999999998,-130.625,-44,-77.3750000000001,-40.625,220.25,18.2500000000001,3700.875,2482.625,230.625,829.374999999999,1806,-1025.625,-1628.875,-276.625,-263.125,-220.75,-45.2500000000001,-46.1249999999999,-10.3749999999999,30.3749999999999,66.6249999999998,-57.2500000000002,-3.99999999999984,-21.9999999999998,-231.625,41.7499999999999,-5774.375,422.374999999999,513.5,1429.375,892.249999999999,-1731.625,-770.125,-48.875,-42.75,-129.25,4384.375,2721.375,276.25,926.625,1443,-1913.125,-901.125,-85.625,-168,-79.1249999999996,-59.625,5.12499999999961,-8.87500000000048,119.625,-50.3750000000002,-47.1250000000003,58.875,294,6.87500000000003,3830.5,2532.5,220,910.5,1865.875,-1124.25,-1592.5,-261.75,-147.875,-181.875,-163.625,-14.4999999999999,-2.62499999999999,-32.2499999999999,-85.5,-6.49999999999976,31.7500000000003,-39.2499999999995,-262.875,205.875000000001,-6351.25,365.125,539.75,1555.875,662.75,-1760.375,-705.5,31.3749999999998,39.7499999999999,-246.75,4392.5,1847.5,370.875,885.125,1504.875,-1597.625,-955.875,25.4999999999998,-70.75,-70.6249999999999,-70.7499999999999,-7.99999999999966,24.6250000000001,-11.2500000000004,-25.375,-4.49999999999994,-24.875,287,150.75,3758.625,2651,291.875,910.624999999999,1852.625,-1276.75
"1",224.375,-155,-1081.375,181.375,57.6250000000002,-51.4999999999999,-60.7500000000003,-16.1250000000005,-14.2499999999997,162,-715.625000000001,-464,313.625,440.374999999999,237.000000000001,-155.249999999999,-1021.625,120.874999999999,95.2499999999993,-35.1249999999999,-62.2500000000007,-26.3749999999977,-22.6250000000001,238.5,-660.875,-1150.125,3780.25,335.25,229.75,-286.125000000001,-765.375,113.625,73.875,-69.5000000000004,-58.2499999999999,-49.6250000000001,5.37499999999999,424.749999999999,-127.5,-3668.875,9539.99999999999,257.125000000001,247.625,-704.5,-1.74999999999918,117.874999999999,3.12499999999985,-61.5000000000005,-54.4999999999996,-23.124999999999,-27.7500000000005,205.624999999999,123.375,-7812.125,5661.25,251,137.5,-1288.75,363.874999999999,84.6250000000001,10.2500000000005,-99.8750000000019,-39.2500000000009,-44.2500000000003,3.87499999999803,-170.875000000001,70.2500000000009,-8004.625,3024.125,254.25,85.4999999999995,-1387.75,302.624999999999,92.6250000000015,-32.1249999999991,-98.7499999999996,-27.9999999999996,-28.2499999999992,95.5000000000005,-657.25,-45.6249999999998,-3899.75,823.249999999998,260.25,-69.625,-1259.875,246.125,88.5000000000002,-42.2499999999996,-52.1249999999996,-20.0000000000008,-2.37500000000103,328.749999999999,-469.874999999999,-2366.25,7171.25,319.125,222.75,-499.999999999999,-403.124999999999,158.000000000001,29.5,-52.4999999999994,-45.5000000000016,-21.5000000000011,3.87500000000067,394.499999999999,107.999999999999,-6416.75,8830.49999999999,249.625,182.249999999999,-1024.375,303.500000000001,127.25,-9.24999999999927,-71.6249999999989,-53.3750000000006,-16.8749999999992,-43.6250000000003,480.75,89.1250000000006,-6163,9409.87499999999,256.375,174.999999999999,-976.874999999999,276.5
"1",312.124999999998,-2181.625,404.25,-356.375,48.3750000000002,-227,157.75,-59.7500000000001,28.7500000000003,-239.625,-310.125,175.75,88.3750000000001,-59,190.375,44.6250000000001,-175.249999999999,52.2499999999997,-2688.75,4176.375,337.25,378.500000000001,-747.125,-221,-1043.875,185.125,-337.374999999999,116.125,-145.75,129.375,-932.499999999999,6376.75,371.125,213.625,464.625,-1088.625,-343.25,-264,290.625,-298.75,132.749999999999,-278.874999999999,-9532.375,4070.125,386.749999999999,523.5,-99.374999999999,-1432.625,71.4999999999997,-305.125,-60.3750000000001,-169.5,173.5,-422.375,163.625,-315.75,3.50000000000007,-137.375,-43.3749999999999,2191.625,1091.125,-235.249999999999,655.250000000001,-496.499999999999,-1581.75,178.5,151.625,-251.25,-2900,10412.5,195.625,513,456.249999999999,-1360.5,25.7499999999998,19.7499999999996,-190.75,-97.1250000000001,160.625,73.6250000000004,81.3750000000005,-205,83.8749999999995,-258.5,69.1249999999996,-11845.875,9412.99999999999,114.25,638.375,461.875,-1734.125,-380.000000000001,270.875,-200.625,-83.1250000000002,-1043.625,7499.875,541.25,63.2499999999994,685.249999999999,-1212.375,-252.624999999999,297.125,-192.125,180.999999999999,-246,3.37500000000009,189.124999999999,-114.25,29.625,140,-87.8750000000005,249.5,-1511.25,1741.75,88.5000000000005,511.374999999999,-208.999999999999,-1876.875,403.375,-12.9999999999998,5.62500000000007,-4673.875,10865.5,-1.99999999999963,543.624999999999,207.625,-1291.125
"1",-68.9999999999998,199.875000000001,-204.375,-60,495.875,1883,331.25,160.25,852.499999999999,-336,-627.750000000001,94.7500000000004,23.2500000000001,177,-393.625,-51.125,74.3750000000001,-7896.875,2914.125,123.624999999999,575.75,729.625,-1270.125,-61.75,37.7499999999993,-85.3749999999991,117.125,-150.125,34.3750000000002,-580.875,5801,160.25,194.250000000001,948.375,-821.249999999999,-485.374999999999,30.875,-45.75,197.375,-431.625,-9.12499999999992,79.7500000000001,-7800.5,2547.125,139,551.374999999999,612.5,-1221.25,-43.625,19.5000000000002,7.37500000000007,-134,-73.1250000000001,18.625,-4070.875,6632,83.3749999999999,394,1020.875,-1358.875,-331,111.75,-69.8749999999998,290.249999999999,-407.374999999999,-32.5000000000001,310.625,-3305.625,987.374999999999,169.25,745.999999999999,114,-829.375,-35.125,72.4999999999999,78.3750000000001,-209.25,-49.3750000000001,-44.625,-5982.375,6411.625,122.125,391.875,898.375,-1400.125,-209.375,119.375,-61.3750000000001,174.625,-166.5,-4.00000000000019,78,4094.5,153.375,272.125,980.499999999999,-680.125,-490.125,61.2500000000001,-5.87500000000056,258.749999999999,-462.125,-69.5,14.8749999999999,-8174.125,3097.25,75.3749999999999,497.374999999999,729.374999999999,-1264.875,-101.125,115,-42.125,41.625,-134.75,-17.4999999999995,-879.125,6146.75,161.25,278.25,948.625,-919.375,-479.125,71.2499999999996,-40.8749999999999,220.875,-437.25,-96.6250000000003
"1",-2351.625,4412.75,72.2500000000001,87.25,569.125,68.7499999999999,-165,19.625,23.875,463.125,-185.125,1.37500000000004,-5589.625,4642.75,-18.9999999999999,139.125,632.75,-77.625,-405.125,85.625,55.375,67,-435.125,-40.125,-1792.25,4008.625,111.75,85.7499999999998,501.375,124.375,-196.625,73.75,42,195,-208.25,-13.125,-4557.125,4728.125,-32.2500000000002,98.375,588,59.7499999999999,-134.625,30.875,28.625,182,-171,51,-5664.625,4453.375,-26.625,165.625,646.875,-110.75,-148.125,74.9999999999999,180.75,-659.75,-13.875,686.125,-1935.875,897.5,45.875,389.625,415,-255.125,-34.875,59.75,407.75,-567.5,-49.0000000000001,-1200.5,3912.375,144.25,57.5,426,180.5,-146.375,55.875,-42.1249999999999,325.375,-524.125,-7.62499999999997,-253.25,2558.5,264,20.625,479.5,257,-226.125,-6.37500000000018,-13.9999999999999,208.75,-425.75,-68.1250000000001,-12.5000000000001,1672.625,397.5,58.875,486.625,286.875,-238.625,-4.87500000000009,20.7500000000003,211.5,-415.75,-11.4999999999998,-501.5,3127.75,265.375,8.74999999999999,456.125,302.875,-188,39.5,-53.375,250.375,-239.75,10.6249999999999,-2860.5,4624.375,44.125,84.875,598.625,79.6249999999998,-159.5,51.375,149.75
"1",196.875000000002,-334.124999999998,-58.1249999999986,-401.249999999994,523,382.875000000003,-272.625000000002,-1762.75,18.5000000000004,55.2500000000027,-225.874999999999,8.87499999999562,-11167.5,2693.625,331.375,262.500000000003,-2282.25,33.8749999999963,-19.8749999999936,170.124999999996,-0.500000000000565,-10101.875,9649.49999999999,271.875,520.625000000001,-2073.375,-152.000000000002,-42.2500000000017,336.124999999994,-133.125000000011,-2465.75,14445.375,165.750000000002,475.375000000001,-1110.37499999999,-879.499999999996,39.2499999999982,134.249999999998,-233.750000000006,-0.500000000000753,-3588.25,479.999999999998,301.250000000002,-129.625000000001,-1939.875,99.750000000008,-99.2500000000047,56.8749999999975,16.875000000005,-11486,6687.25,218.000000000002,441.499999999998,-2046.12500000001,-2.75000000000379,-56.8749999999947,278.999999999998,-72.7500000000004,-5107.75,13766,260.499999999999,496.25,-1555.5,-422.874999999994,-67.5000000000029,236.750000000004,-320.874999999998,-411.124999999996,4519.75,330.874999999996,344.499999999997,-484.499999999995,-1531.75,42.2499999999986,33.7499999999978,-146.874999999996,9.12500000000596,-12195.5,3326.375,249.624999999997,333.125000000001,-2202.25,87.1250000000019,-76.7500000000029,310.000000000001,-70.2500000000051,-4760.375,14335.5,202.125,510.624999999999,-1408.875,-470.124999999997,-32.3749999999996,277.25,-264.374999999997,-400.374999999998,5002.25,327.999999999998,409.249999999994,-503.499999999996,-1428.62499999999,50.8750000000017,66.1249999999982,-215.249999999999,55.1250000000008,-8711.12499999999,1407,336.250000000006,82.6250000000012,-2033.875,56.4999999999971,-47.6250000000058,4.37499999999855,6.00000000000103,-11465.375,5873.875,296.125000000007,398.874999999992,-2185.875,-19.3750000000018,-95.6250000000025,195.375000000004,-59.8749999999994,-6469.375,13471.5,201.374999999999,450.875,-1701.87499999999
"1",-565.375,96.4999999999995,-584.999999999999,-12.8749999999998,-11475.875,2476.25,510.125,506.999999999999,-1729.375,5.75000000000039,-14.2499999999996,228.375,-3462.25,14456,349,1298.875,-2162.625,-333.250000000001,110.125,-464.25,3.37499999999973,-6519.5,751.875,643.874999999998,-343.874999999999,-1092.5,61.8749999999999,-226.875,165.375,-6784.875,10568.625,353.500000000001,1093.875,-2094.875,-235.25,233.250000000001,-82.2499999999997,-275.25,2812.375,312.499999999999,820.5,-1005.875,-819.25,36.7499999999999,-563.374999999999,77.6249999999999,-10499,5752.375,402.500000000001,987.624999999999,-2103.625,-108.375,208.499999999999,133.875,-1049.125,10371.25,316.875,1127.375,-1633.625,-598,83.8749999999996,-653.625,35.7499999999989,-11095.375,2885,508.374999999998,465.375,-1600.375,-45.0000000000002,59.0000000000002,248.624999999999,-2535.125,12588.75,289.499999999999,1122.5,-1960.75,-395.625,151.5,-469.5,-18.3750000000002,-7627.125,888.75,612.875,-28.8749999999981,-1318.125,-21.8749999999987,-193,175.874999999999,-6355.5,11690.625,316.999999999999,1371.375,-2346.125,-199,167.25,-256.875,-81.7499999999999,-836.875,369.25,803.374999999998,-715.125000000001,-942.625,61.4999999999998,-397.625,136.499999999999,-8654.99999999999,8030.75,354.25,1026,-2039.125,-193,203.375,-6.87499999999987,-447.625,4777.375,327.5,895.874999999998,-1134.5,-736.249999999999,65.9999999999999,-475.249999999999,80.8750000000001,-10062.625,6059,416.624999999999,1110.75,-2171.375,-113.375
"1",22.0000000000003,133.25,5.37500000000003,-8120.875,1272.25,489.249999999999,28.8750000000003,-1227.25,-147.75,122.5,-135.749999999999,33.4999999999979,-266.624999999997,-14.8750000000022,-8033.87499999999,8521.87499999999,376.625000000002,503.874999999999,-1298,-349.999999999998,186.5,-70.5000000000006,-100.750000000001,-336.500000000001,69.1249999999998,-1354.5,7196.37499999999,338.249999999999,586.874999999996,-580.249999999999,-809.625,13.0000000000003,45.9999999999993,-190.375,85.6249999999995,-290.374999999999,4.12499999999893,-8302.375,9214.12499999999,389.625000000001,490.999999999999,-1289,-372.375,145.875000000001,-88.6250000000008,-131.5,-215.875,94.1250000000005,-717.749999999997,3166.5,321.499999999999,588.000000000002,-424.374999999999,-962.000000000002,-36.2500000000015,79.1250000000003,-212.000000000001,119.999999999999,34.6250000000003,-19.0000000000001,-10120,4206.375,423.499999999998,253.625,-1400.875,-237.875000000001,144.499999999999,-131.25,-21.6249999999991,-351.375000000001,-51.1250000000002,-5668.25,11269.625,358.625,556.875000000001,-1155.75,-464.250000000001,128.625,-58.375000000003,-166.625,42.6249999999992,151.000000000001,-14.6250000000032,-7197.875,990.374999999999,493.75,-45.3749999999989,-1231.25,-106.125,162.499999999999,-169.749999999997,25.4999999999993,-348.625,-21.8750000000006,-5964.875,11160.875,357.875000000001,542.500000000001,-1156.625,-454.25,133.749999999999,-21.5,-167.375000000001,-50.8749999999993,160.874999999997,-164.000000000002,-4254.625,485.999999999999,507.5,-133.875,-1160.875,-75.1249999999975,136.249999999998,-206.125000000003,-29.8749999999965,-423.249999999998,-9.62500000000099,-2721.625,12294.5,350,615.499999999999,-905.250000000004,-636.000000000002,91.8750000000023,25.1250000000003,-201.749999999997,93.8749999999978,-156.499999999997
"1",41.6249999999999,-65.5,-102.125,53.625,-40.625,11.75,83.4999999999999,-91.1249999999999,188.75,-1037.5,713.375,132.5,209.875,-740.375,79.625,227,20.1249999999999,-54.625,-86.7499999999999,6.12500000000001,-41.375,278.25,-309,-30.5,-1600.25,4883.75,206.25,116.875,44.8749999999998,-1032.75,501.5,146.625,-34.25,-49.125,-51.625,22.75,25.75,42.25,-169.875,250.875,-2197.75,961.625,148.5,142.375,-536.5,-142.25,256.875,-35.25,-48.375,-29,-8.12499999999999,-52.375,70.5,-63.8749999999999,-61.375,-115.75,1451.25,465.375,151.125,189,-792.249999999999,230.75,234.125,-52,-74.125,-33.875,-8.62499999999999,-35.25,-67.375,330.5,-388.75,114.375,-5414.25,2586.75,154.5,202.375,-197.875,-761.25,331.875,37.7499999999999,-39.5,-64.625,5.625,-43,35.875,305.25,-494.625,24.375,-5387.375,2601.5,132.375,218.75,-239,-711.125,368.875,72.875,-6.375,-33.375,25.125,-51,52.875,218.375,-260.625,235,-3262.5,1247.5,115.875,160.5,-538.625,-249.75,277.25,29.75,-62.625,-37.625,-32,-41.75,100.25,-58.75,-50.75,23.125,779,447,225.75,247,-727.875,190,242.5,-31.125
"1",150.375,659.75,69.25,-61.2499999999999,-71.6249999999998,-10.7500000000001,-10.625,39.75,-0.625000000000038,418,-665.875,12.8749999999999,-2715.375,6761.25,206.125,65.8750000000004,-109,-1444.5,976.374999999999,399.375,27.7499999999999,-65.5,-34.2500000000001,-22.7500000000001,-37,-5,124.75,-88.7500000000002,-71.7499999999996,166.5,-5580.375,2010.625,159.25,70.125,-857.75,-469.375,870.874999999999,182.125,-59.75,-90.2499999999999,-1.62500000000008,20.8749999999999,31.1250000000001,8.37500000000002,-38.3749999999999,229.375,-389.375,78.5,-5095,7375.125,189.999999999999,24.5000000000002,-180,-1349,1039,235.625,-15.4999999999999,-113.625,1.74999999999998,-44.75,21.8749999999999,-23.0000000000002,10.1250000000001,306.875,-550.5,-7.12499999999989,-4202.875,7100.5,169.375,59.375,-252.625,-1477.75,1209.125,359.749999999999,-32.9999999999999,-206.125,-12.1250000000002,5.99999999999994,-10.8750000000003,-6.00000000000004,-14.4999999999999,377.5,-500.25,-8.37500000000011,-15.7500000000001,-332.874999999999,702.374999999999,164.375,89.0000000000001,-1057.75,37.125,714.625,107,-20.7500000000002,-75.1250000000004,-49.3749999999996,-3.49999999999967,-23.2500000000003,-16.5000000000005,-29.7499999999999,129.25,-250,22.0000000000003,-7151.75,5108.75,129.25,81.8750000000001,-391.25,-1240.875,1171.625,189.125,-27.8749999999998,-104,7.62499999999993,-22.1249999999998,-29.875,-49.9999999999998,388.125,-482.124999999999,8.25000000000017,-536.875,2887,459.375,104,7.6249999999999,-1292.875,507.25,589.875
"1",-49.875,15.8749999999998,23.6250000000001,13.7500000000001,130,47.6250000000001,-32.8749999999995,265.75,-1179.875,700.75,-139.375,-118.75,-1028,-267.5,1304,106.625,-68.2499999999999,-95.75,7.12499999999989,-34.2500000000002,50.7499999999999,-42.0000000000002,-27.75,272.25,-383.75,36.25,-4186.875,5436.875,100.875,-121.625,-232.249999999999,-1573.75,1367.5,507.75,-21.6249999999999,-38.3749999999999,-48.25,-39.1249999999995,-52.5000000000001,-77.375,-12.1250000000002,60.8750000000001,182.25,-285.5,29.1249999999998,-5315.375,4939.625,23.3750000000001,-141.875,-316.875,-1754.875,1655.875,440.874999999999,-2.2500000000001,-105.875,-60.8750000000001,66.1250000000001,10.8750000000002,-14.7499999999997,92.1250000000001,5.50000000000001,79.1250000000001,-61.3749999999995,-65.6249999999999,265.125,-2624.375,927.125,-24.9999999999998,-17.6249999999999,-875.875,-690.75,1432.375,74.3750000000001,-28.7499999999999,-131.375,-37.1250000000002,9.74999999999998,10.7499999999999,17.4999999999998,24.9999999999999,274.5,-322,11.4999999999999,-3694.75,5349.75,74.8749999999997,-108.75,-292.125,-1535,1415.625,661.25,32.1250000000006,-156.875,-2.00000000000013,-24.4999999999999,-2.12500000000011,-83.8749999999999,-66.25,119.25,-235.5,-3.87499999999965,-865.375,3841.875,263,-96.1249999999998,-119.375,-1431.625,687,886.624999999999,-23.875,-54,-89.2500000000004,-73.6249999999996,-3.87499999999991,-33.5000000000002,-31.9999999999999,-72.8750000000001,73.625,-75.2499999999999,-48.9999999999998,123.625,-950.5,609.749999999999,-25.3750000000001,-111.125,-1117.875,-189.625,1300.75
"1",172.875,-106.875,-3079.875,10082.25,178.375,-44.4999999999998,-1261.75,76.7499999999999,379.125,176.25,-185.000000000001,-94.9999999999998,-6642.5,8604.875,125.499999999999,-239.249999999999,-1355.625,293.25,247,354.249999999999,-431.250000000001,-40.2499999999994,-7129.375,2438.625,-33.8750000000005,-519.749999999999,-1070.625,518,136.5,464.125000000001,-99.8750000000007,-1211.125,7924.75,271.125,-71.8750000000001,-1028.5,-135.5,414.000000000001,253.75,-288.25,-107.75,-8833.375,6092.375,101.5,-205.874999999998,-1457.125,539.5,227.249999999999,530.75,-185.875000000001,-48.3750000000008,712.625,700.375,4.74999999999947,-770.125,-813.499999999998,501.374999999999,147.875,-222.125,-194.249999999999,-7092.5,8187.49999999999,-71.4999999999998,-312.875,-1575.5,297,129.875000000001,348.875,-194.500000000001,-281.75,3407,450.5,7.74999999999951,-852.875,-412.5,484,296.374999999999,-286.5,-52.3750000000005,-8854.37499999999,3854.125,-151.624999999998,-562.5,-1456.25,306.749999999999,-31.3750000000002,31.3749999999992,-329.875,-2673.125,9411.62499999999,5.37499999999977,-192.125,-1359,-22.3749999999999,291,389.375,-301.125,-60.5,-6467.125,1890.375,29.7500000000006,-554.25,-1180.625,577.875,107.625,33.3749999999998,-182.125,-4418,9864.24999999999,83.0000000000006,-130.499999999999,-1395.875,223.125,294.375,457.375,-325.624999999999,-15.2500000000001,-6295.5,1754.875,30.8750000000004,-533.25,-1206.75,476.375,131,-15.3750000000001,-245.75,-4821.625,9143.37499999999
"1",305,-0.8749999999996,121,-123.25,-102.375,-6458.375,7560,340.124999999999,93.8749999999999,-854.500000000001,-243.5,197.5,-207.75,-306.374999999999,-390,-761.249999999999,-5094.125,7818.375,-425.625,-717.875,-1643,-1392.875,-372.125,-735,-639.499999999999,-120.5,-781.374999999999,-936.749999999999,4639.375,647.5,132.75,-308.749999999999,-1171.5,503.749999999999,161.25,64.2499999999994,453.875,-398.000000000001,-66.9999999999999,-7302.375,3060.5,370.750000000001,22.250000000001,-1066.375,346.375,273.874999999999,15.8750000000004,409,-395.375000000001,60.5000000000015,-7805.375,4095.625,281.249999999999,67.6249999999996,-1041.125,246,257.750000000001,19.375,477.999999999999,-419.125000000001,-11.0000000000004,-2949.5,1702.5,207.25,-91.5000000000001,-1183.625,377.25,173.75,-5.24999999999923,425.624999999998,-364.749999999999,-399.999999999999,3534.625,914.124999999999,236.25,-263.624999999999,-1094.75,493.125,162.25,16.875,359.874999999999,-261.25,-1244.375,7150.375,637.374999999999,216.25,-334.875,-991.625,499.625,89.2499999999997,28.7499999999997,219.624999999999,-163.250000000001,-3941,8936.875,433.625,177.5,-589.875,-618.25,404.75,65.4999999999999,424.875,-388.875,0.624999999999671,-8272.99999999999,3868.375,329.75,82.625,-1147.875,308.625,272.125,153.25,-41.875,-133,-4677.875,8672.87499999999,430.125,157.875,-695.5,-453,370.5,229.625,-132.625,-145.875,-3408.875,8642.62499999999,418.875,159.624999999999
"1",-88.3749999999999,256,-313.875,-89.4999999999999,-8110.875,3464.75,233.5,162.875,-1552.625,439.75,347.75,8.74999999999998,35.8749999999999,-125,-170,-7518.625,6265.25,296.875,195.375,-1120.5,-38.3750000000002,356,38.375,294.875,-350.5,-32.375,-7680.75,3653,218.75,96.1249999999998,-1471.25,454.375,232.75,-15.375,117.75,-366.875,-929.249999999999,4900.75,621.875,220.625,-357.25,-1080.875,558,182.75,30,-11.5,-320,-2472.75,7905.25,388,276.75,-580.875,-887.499999999999,585.75,109.125,-83.125,284.25,-382.875,-540.25,4482.875,710.375,283.875,-295.75,-1491.75,670.125,153.125,-111.5,342.125,-409.5,-66.625,-722,1136.375,264.5,-100.125,-1619.625,674,146.75,-66.875,312.375,-287.5,-50.75,-8086.87499999999,4722.875,185.375,174.875,-1348,223.75,368.875,-56.625,286,-268,-111.5,-1587,1235.375,175.75,-96.8750000000001,-1520,578.875,202.75,19.75,36.25,-305.25,-1525.75,6585.625,439.25,267.875,-482.375,-1025.625,545.125,152.375,-117.875,284.75,-418.875,-134.25,1233.5,981.999999999999,284.5,-99.25,-1721.875,742.125,231.75,-68.5,264.5,-271.5,-109.875,-8560.37499999999,4717.25,306
"1",352.749999999999,228.750000000001,400.625,-230.375,14.7500000000002,-4405.5,2274.5,-313.624999999999,-1718,-367.875,1267,388,180.875,399.25,-198.25,-110.75,-3016.625,1953.5,-305.25,-1715.25,-234.75,1191.25,332,207.749999999999,278.875,-294.625,15.0000000000016,-9313.62499999999,3592,-136.5,-1205,-932.499999999999,1345,389.874999999999,259.5,301.625,-281.75,27.5000000000002,-10773.875,5162.5,-97.3749999999992,-1148,-1301.125,1499,480.249999999999,244.75,269.750000000001,-359.75,-16.1250000000006,-11119.75,5808.125,-113.125000000001,-1202,-1323.625,1452.875,504.124999999999,249.75,187.875,-319.749999999999,11.1250000000004,-10269.625,6776.25,-27.25,-881.124999999999,-1558.75,1435.375,504.25,242.375,144.875,136.000000000001,-48.1250000000001,-2322.625,8605.87499999999,234.875,-399.125,-1865.875,963.25,743.874999999999,233.250000000001,168.125,453.874999999999,-57.1250000000001,-114.5,1849.375,1108.125,-335,-1917.25,337.5,1102.625,284,233.875,463.249999999999,-151.25,-75.7500000000002,-2406.875,1834.75,-293,-1797.75,-110.624999999999,1209.125,393.25,231.124999999999,201.875,-425.375,-24.6249999999996,-10832.125,5552.25,-138.25,-991.249999999999,-1480.625,1386.25,417.875,245.375,119.625,126.375,-78.2500000000001,-2164.375,8520.62499999999,285,-461.25,-2011.875,992.125,843.125,258.5,145.25,428.75,-107,-102.125
"1",-30.25,156,-373.75,27.5,-11216.875,8012.625,199.75,121.375,-669,-956.5,870.875,138,-130.125,-70.375,57.25,-17.75,27.625,21.875,100.125,19.25,-179.75,4967.375,764.75,100.875,-53.625,-1495,817.999999999999,355.875,-45.75,-62.625,-50.75,21.875,-22.875,-29,64.3749999999999,-184,-35.625,-3007.125,11786.625,414.875,152.875,-233.125,-1609.625,951.375,270.375,-98.125,-108.375,-5.12499999999997,5.12499999999997,-21.125,-30.375,294.375,-75.8749999999999,-106.875,-4896.875,1791.125,176.375,85.1249999999998,-1303.375,239,489.75,7.1249999999999,-163.75,-32.25,10.5,-18.125,-23.625,85.8749999999999,-341.5,-69.875,-3397.875,11762.375,346,143.125,-285.875,-1549.375,999.625,130.5,-164,-54.875,22.875,-25.75,-17.75,30.75,87.25,-387.375,-13.875,-9760.87499999999,8914.12499999999,169.75,106,-559,-1086,1003.75,33.125,-191.625,3.24999999999997,-3.37499999999997,-9.25000000000002,10.5,41.375,298.375,-170.25,11.25,-12131,4117.125,198.125,25.8749999999998,-932.999999999999,-387.75,717.125,17.75,-149.75,-48.125,23.125,6.37499999999998,9.99999999999999,56.875,-359.75,-37.375,-11094.25,7592.875,194.5,61.6249999999998,-568.125,-1060.875,801.875,105.25
"1",6.12500000000006,119.5,27.2499999999999,-60.625,-5255.375,1823.5,69.6250000000001,-249.875,-1989.875,-377.125,1968.75,383.499999999999,-102.25,-1.99999999999999,-18.6249999999999,-23.25,-43.875,253,-154,85.4999999999999,-10797.375,5615.375,47.3750000000002,-118.625,-1151.5,-1750.625,1998.375,677.25,-50.2500000000001,-10.25,-25.4999999999999,2.37500000000016,18.2499999999999,-0.125000000000035,276.125,-135.375,65.6249999999994,-10709.375,4785,130.875,-112.625,-1488.625,-1650.875,2225.5,668.375,-90.375,-6.99999999999995,96.0000000000001,102.5,51.6249999999998,75.1250000000001,299.749999999999,88.4999999999999,7.75000000000045,-5141.5,2093.125,220.5,46.4999999999998,-1623.875,-337.25,2034.75,718.749999999998,113.5,166.124999999999,195.874999999999,232.375,145.5,364.5,-89.500000000001,119.874999999999,-10212.5,5730,59.2500000000006,-147,-1272.75,-1768.625,2000.25,665,-159.125,-74.9999999999998,-28.6249999999992,-86.0000000000001,-77.4999999999985,-138.25,73.4999999999993,-466.999999999999,-117,-8363.24999999999,7777.375,115.249999999999,-183.25,-1127.875,-2350.25,2002.875,839.75,-136.624999999999,-87,3.74999999999985,-127.75,12.875,115.125,-475.75,-76.6250000000003,-3253.375,9469.74999999999,301.5,14.3750000000001,-478.75,-2458,1322.875,1112.875,-0.999999999999083,-158.75,-81.25,-123.124999999999,-83.8749999999996,-83.1250000000003,-231.875,-79.1250000000001,-417.625,3880.5,585.125,-93.875,-440.374999999999,-2262.25,536.874999999999,1562.25,51.3750000000001
"1",-108.000000000002,33.5000000000003,-31.6249999999996,-189.124999999998,-82.3749999999997,-217.624999999999,4137.5,450.749999999999,161.625,-134.25,-1085.25,548.874999999997,17.8749999999998,-27.6249999999992,18.1249999999998,16.5000000000006,-215.875,-42.4999999999992,-750.124999999999,5975.75,243.499999999999,163.75,-318.125000000001,-755.75,554.249999999999,-46.8749999999991,-156.374999999999,7.49999999999988,230.250000000001,-8.74999999999923,118.249999999999,-7864.625,2512.625,79.6249999999992,87.5000000000003,-1132.375,1020.375,-55.8749999999995,-181.375,47.6250000000004,37.124999999998,35.1249999999979,83.4999999999983,-338.25,-2.37499999999943,-4370.75,6525.5,199.500000000001,107.750000000001,-651.375,40.2500000000013,356.625,-134.625,-51.875,110.625,41.3750000000008,122.499999999999,-302.249999999999,40.5000000000003,-4763,6635.25,147.374999999999,181.874999999999,-802.625,165.374999999998,315.374999999999,-126.5,-39.0000000000016,29.1249999999995,9.74999999999878,169,-104.124999999999,22.4999999999996,-6577.125,5603.25,129,336.249999999999,-884.750000000001,209.500000000001,234.375,-150.875000000001,23.3750000000007,103.125,59.8750000000002,-381,-13.6250000000009,-2002.625,6584.5,177.5,213.25,-226.874999999999,-917.75,409.124999999999,-3.12499999999851,-38.9999999999997,-51.3749999999998,151.5,-143.625,67.7499999999996,-7660.875,4518.875,69.1249999999998,209.000000000001,-993.75,697.624999999999,127.000000000001,-241.375,22.3750000000006,33.1250000000002,199.25,11.7499999999985,47.4999999999999,-7699,2404.5,58.2500000000006,126.375000000001,-1156.875,1022,-24.6249999999996,-158.124999999999,30.9999999999998,79.6249999999992,9.62499999999969,-183.749999999999,-64.0000000000006,-208.625,5146.625,307.75
"1",139.124999999999,560.624999999999,1117.5,-1775.5,-43.875000000001,-182.125000000001,16.3750000000001,-622.624999999998,-117.625,4751.25,1318.125,392.749999999998,1305.875,-1365,-290.624999999999,-93.6249999999992,-171,-186,-167.75,6410.5,378.125000000001,223.125,1082.125,-338.874999999999,-715.999999999999,34.6250000000007,-192.249999999999,171.625,-248.875,1636.625,-6672.875,145.750000000001,818.5,492.875,-1172.5,81.1249999999983,-173.75,302.249999999999,-334,154.375,-8491.25,170.75,649.624999999998,953.499999999999,-1439.875,40.124999999998,-123.125,182.750000000001,-527.125,-42.6250000000002,-1408.5,478.125,500.375000000001,1255.125,-1627.5,-82.7500000000004,-137.624999999999,-13.6249999999991,-547.375,-122.75,5642.25,1528.625,378.000000000001,1331.375,-1365.125,-349.625,-92.5000000000004,-193.625000000001,-214.125,-193.375,6589.25,446.5,233.75,1153.25,-502.249999999999,-769.875,-32.1249999999991,-251.000000000001,191.624999999998,-326.000000000001,816.249999999999,-8292.5,130.375,796.124999999998,599.874999999998,-1431.125,-1.87500000000188,-178.625,220.749999999998,-519.500000000001,9.25000000000137,-6170.375,185,473.375000000001,966.75,-1493.5,-14.8750000000016,-136.625000000003,73.2500000000014,-539.624999999998,-89.7500000000038,2002.75,875.999999999999,375.375000000002,1158.875,-1348.25,-167.625,-100.375000000002,-55.2500000000004,-509.125,-131.125,6908.875,1879.25,306.125,1272,-1183.875,-378.874999999998,-50.1249999999989,-170.124999999999,-328.374999999999,-155.125000000002,7648.25,1383.625,266.500000000002,1335.875,-829.374999999999,-623.625,21.3750000000016
"1",-671.75,-127.875,4729.125,2207.75,276.25,1174.75,-668.875,-505.124999999999,-58.7500000000002,-160.625,273.625,-378.875,90.6249999999993,-9420.62499999999,39.1249999999994,350.125,900.374999999999,-1245,-97.7499999999998,-135.875000000001,-89.9999999999994,-206.75,-200.375000000002,3697.625,-2829.875,47.6249999999991,555.500000000002,285.125,-1091.625,-75.2499999999991,-197.125000000001,78.1250000000005,-645.499999999999,-199.625,6504.25,2484.875,151.625000000003,983.249999999997,-415.5,-764.750000000002,-46.9999999999982,-255.625000000001,278.874999999999,-571.749999999998,-86.0000000000026,-5002.625,199.749999999997,302.500000000004,1179.5,-1365.75,-249,-144.5,-197.999999999999,83.3750000000016,-291.5,694.500000000001,-8638.25,42.3749999999988,579.000000000001,817.375000000001,-1491.25,-31.7499999999992,-85.4999999999991,83.1250000000003,-228.75,-52.5000000000005,5782.5,544.875000000001,283.124999999999,913.750000000001,388.125000000001,-743.125000000001,195.625000000001,113.625,481.75,-381.624999999999,76.2499999999959,2603.375,1699.75,318.374999999997,1147.5,-489.375000000001,-279.125,22.8750000000005,-63.2499999999998,293.000000000001,-185.875000000002,287.250000000001,-9732.99999999999,107.000000000001,503.499999999999,1012.125,-1388.75,-48.1249999999994,-109.124999999998,-61.8750000000022,-208.5,-138.249999999998,4464.625,-954.75,260.750000000001,955.625000000001,460.500000000002,-1052.5,182.375000000002,73.6250000000009,468.625000000002,-437.374999999999,100.875000000001,5095.125,2420.875,355.125,1237.75,-737.249999999998,-755.624999999999,-245.375000000002,-420.874999999999,53.2500000000008,-722.374999999999,-225.375000000001,-7817.25,-27.0000000000004,295.500000000002,1055.5,-1240.125,-99.1249999999992,-71.1249999999962,-31.0000000000004
"1",311.125,-324.625,-29.25,-2445.875,417.125,153.375,114.875,127.375,-42.625,-46.7500000000001,-211.75,90.25,-253.875,1757.25,-2653.375,66,292.875,-12.875,-283.625,-10.875,-132.75,253.375,-376.125,-118.125,1457.125,908.125,154.75,252.25,-6.99999999999996,-79.375,-74.75,-55.125,107.125,-243.375,524.75,-4252.625,95.875,271,-47,-187.875,30.5,-172.75,199.25,-418.125,-120.625,2157.5,994.375,-2.12500000000006,124.375,180.875,-48.75,50.125,-182.875,119.5,-187.875,1820,-2683.875,-8.75000000000002,326,68.0000000000001,-240.625,62.25,-168,347.375,-443,-12,-3270,311.375,154.75,186.375,-59.125,28.6249999999999,-54.125,-8.62499999999999,-176.25,-249.375,4372.625,1210.625,77.625,293.875,-44.625,-194.125,-12.5,-145.375,288.625,-276.875,-173.375,-6060.875,141.125,200.625,-63.2499999999999,-70.8749999999999,25.75,-111.75,241.875,-431.625,-90.4999999999999,3026.875,1243.875,1.62500000000001,92.75,195.125,9.99999999999997,50,-131,83.5,-112,2324.5,-1898.25,26.375,244.875,80,-164,48.2499999999999,-230.125,233.875,-264.25,-146.125,-5033.375,234.875,209.875,42.375,46.875,-5.99999999999999,-40.875,141.75,-416,-112.625
"1",-122.25,-48.5,76.3749999999999,-235.625,-80.3749999999997,6086.875,888.624999999999,316.375,977.375,1094.625,-2182.25,-86.3750000000001,-106.625,-89.4999999999996,-34.8750000000001,-108.25,-103.875,3783.5,-2480,264.625,779.375,1352.875,-2366.5,-115.375,-125,-111.75,-66.1250000000001,77.1249999999999,-101.375,1806.375,-5957.75,277,689,1528.125,-2418.375,-125.375,-65.3749999999999,-72.8749999999999,-24.5000000000001,264.75,-103.375,819.624999999999,-8407.62499999999,302.25,649.875,1683.125,-2464.375,-236.125,-73.8749999999999,-98.3750000000001,-48.125,281,-163.75,550.375,-8945.99999999999,271.250000000001,636,1738.25,-2456.75,-298.875,-89.75,-82.9999999999998,-46.2500000000001,355.125,-294.375,176.125,-7828.875,330.375,530.625,1732.25,-2033.875,-491,-109.25,-111.75,-75.7499999999998,338.5,-338.5,110.75,-5493.625,410.875,435.75,1589.75,-1519.625,-573.125,-74.2500000000001,-110.5,-71.8749999999999,280.375,-343.375,86.7500000000002,-4339.25,539.999999999999,402.75,1501.5,-1357.25,-666.875,-92.7499999999998,-116.375,-46.7499999999998,302.625,-451.625,-34.3749999999999,-561,994,422.875,1521.5,-833.75,-931.999999999999,-89.0000000000002,-100.625,-71.5000000000001,225.25,-475.5,-8.87499999999995,2993.5,1586,401.375,1456.75,-410.499999999999,-1146.5,-106.375,-99,-50.8750000000001,153.375,-482.625,-69.8749999999999,5893.5,2243.375
"1",609.5,-2955,463.625,15.7499999999999,-1.99999999999987,-333,-93.375,-5009.625,857.5,614.25,-588.874999999999,-1317.75,304.5,-54.7499999999998,389.625,-130.75,-3811.375,11816.375,426.25,725.249999999999,-2885.375,498.125,61.125,-38.7499999999999,-302.75,-57.875,-3856.875,736.125,528.25,-826.375,-1139.5,284.375,-87.125,281.625,-178.375,-8725.49999999999,6421.875,453.999999999999,439.75,-2769.875,466.625,-35.25,351.875,-91.375,-3816.75,11517.625,550.374999999999,772.124999999999,-2884.125,465.499999999999,78.2499999999999,192.75,-293.25,-1352.125,9421.49999999999,365.5,676.75,-2225.5,159.25,164.75,55.875,-360.125,-420.125,4894.5,421.625,612.25,-1721.875,-278.125,186.125,-22.1249999999999,-375.125,-217.75,877.999999999997,551.375,620,-1318.875,-552.749999999999,222.375,0.500000000000016,-454.875,-134.75,1259.75,530.875,681.249999999999,-1333.125,-462.625,208,-3.37500000000002,-349.75,-58.6249999999999,-2884,671.5,618.75,-1053.125,-757.125,276.375,-71.375,-270.375,-190.5,-7851.37499999999,1408,563.375,-542.25,-1358.25,357.625,-59.375,258.875,-208.125,-8869.875,5833.125,475.25,316.375000000001,-2532.625,484.375,-24.1249999999999,356.125,-159.375,-3472.375,11474.5,378.375,747.125,-2804,463.625,129.625,-3.375,-323.125,-36.1250000000001,-4850.375
"1",1189,621.375,-580,-901,142.875,-127.625,-3.75000000000002,186,-344.375,-704,3944.625,511.375,671.75,-1330.25,-322.5,69.6249999999998,-106.375,-23.0000000000002,404.5,-40.875,-3110.25,12876.375,443.75,595.875,-1907.875,99.9999999999999,47.625,-109.375,-33.375,77.625,-63.7499999999999,-9235,7172.75,525.125,340.5,-1807.875,180.875,-12.7499999999999,-64.6249999999999,-11.6250000000001,-417.375,-55.6249999999999,-9397.12499999999,1404.5,581.124999999999,-478.25,-1030.75,163.125,-97.1249999999999,-76.9999999999999,316.5,-99.5000000000001,-1596.5,10974.125,484.25,667.5,-1701.375,-34.25,25.375,-100.75,-41.3750000000001,-128.5,-70.25,-10340.625,4273.125,571.375,44.8750000000004,-1406,116.375,-39.875,-63.2499999999997,148.5,-377,-418.25,1651,543.875,668.75,-1204.125,-361.625,115.375,-125,-7.37499999999997,324.125,25,-7117.75,10401.25,495.25,489.875,-1908.625,145.375,-10.3749999999999,-90.875,137.5,-415.75,-383.375,849.249999999999,577.75,601.999999999999,-1197.625,-384.875,104.625,-113.25,-36.125,132.375,-47,-8545.37499999999,7965.37499999999,499.749999999999,380.25,-1764.125,175.875,23.875,-84.1249999999999,117.625,-412.375,-267.125,-1585.125,650.375,585.625,-950.749999999999,-496.5,133.25,-121.25,-21.75,252.375,14.125,-6847.625,10362.875
"1",49.4999999999999,-37.7500000000002,-42.2499999999999,-230,-116,-4932.125,9214.99999999999,185.625,-209.499999999999,-1569.875,424.375,1070.5,49.3750000000001,-75.8749999999999,25.7500000000001,37,-221,-1459,7028.25,306.75,-14.1249999999999,-1227.125,-610.124999999999,1393.375,186.875,-108.625,-56.1250000000002,267.125,-97.8749999999996,-192.25,-3829.625,669.374999999999,76,-820.874999999999,-1537.75,1505.125,384,-136.25,-34.25,199.625,-131.249999999999,-78.0000000000002,-9077.12499999999,3255.5,215.875,-469,-1843.75,1309.75,661.375,-37.8749999999995,12.2500000000002,79.9999999999993,-222.25,-92.875,-5914.25,8466.37499999999,132.5,-289.25,-1593.75,649.249999999999,1052.625,8.49999999999964,-112.25,-40.6250000000001,160.75,-120.5,-1364,5198.5,322.125,10.5000000000001,-1046,-810.125,1464.375,226,-82.1250000000002,2.37499999999991,306.125,-9.62500000000014,-23.375,-9066.25,2078.25,53.8750000000005,-617.75,-1849,1429.625,611,-83.2499999999998,-78.3750000000001,55.9999999999998,-229.875,-133,-5942.875,8736.375,150.875,-290,-1735.25,599,1092.125,18.7500000000001,-8.12499999999984,-26.6249999999998,49.7500000000002,-203.75,-1681,7196.5,288.125,-124.875,-1200.375,-597.249999999998,1482.5,165.75,-60.7500000000004,-7.9999999999999,348.999999999999,28.3750000000002,-47.625,-6172.5,1027.75,13.4999999999999,-681.125,-1665.375,1542.125,517.125,-108.125,-6.49999999999999,100.375,-216.625,-85.7499999999998
"1",-221.625,-6153.875,2346.375,101.375,-85.875,-762.75,637.375,40.3749999999999,-24.0000000000001,47.8749999999998,121.5,-108.25,-3783.875,6256.125,-24.2499999999999,-76.4999999999999,-868.75,921,79.25,-37.3750000000001,34.5000000000001,310.375,11.25,-1198.375,4458.5,66.375,36.4999999999999,-510.5,543.25,20.7499999999999,-5.87500000000005,35.6249999999999,191.75,-236.125,-161.75,-4814.5,446,74.4999999999999,-155.25,-347.375,297,-1.5000000000001,-64.7499999999998,95.6249999999997,-234.75,-165.75,-5906.375,2396.125,55.125,-85.375,-753.499999999999,574.25,-49.9999999999999,-59.875,75.4999999999999,-79.5000000000002,-116.125,-5049.375,4422.125,-11.0000000000001,-76.2500000000001,-898.75,863.125,-16,24.4999999999999,83.1249999999999,234.5,-18,-1730.375,7539.75,63.4999999999998,35.625,-745.5,776.375,83.125,-56.125,3.12499999999995,332.375,-21.875,-1234.625,6531.875,98.2499999999999,54.7499999999998,-593.5,574.625,3.75,-61.9999999999999,-11.8749999999999,296.25,8.12499999999983,-1230.25,5712.75,171.75,157.875,-478.75,468.875,6.5000000000001,-6.62500000000002,5.00000000000001,328,-32.125,-1209.375,4204.875,181.75,45.5,-602.5,600,65.0000000000001,-47.875,54.125,308.625,-52.875,-788.874999999999,2294,150.5,92.6249999999999,-397.5,489.75,89.8749999999999,-46,45,212.375,-153.625,-255.25,-1788.625,264.375,25.25,-211.5
"1",-2024.25,1519.75,576.5,271.25,143.25,171.5,-94.2499999999999,-25.75,-1058.25,3430.375,422.875,-400.25,-1907.5,1306,628.75,251.375,111.125,116.125,-146.75,-88.6249999999999,-571.25,2210.75,602.375,-404.875,-1939.5,1196.875,696.75,229.375,66.5,64.8749999999999,-174.75,-113.375,-436.125,1723.375,677.875,-451.375,-2074.25,1288.625,684.125,212.75,136.375,98.1249999999998,-143.25,-119.75,-594.75,2045.625,626.25,-451.375,-2099.125,1348.375,664.25,253.625,145.25,171.125,-88.75,-42.625,-1500,4091.625,383.125,-464.375,-2021.875,1425.25,553.25,262.625,110.25,157.375,-120,-54.7499999999999,-1199.75,3552.375,414.875,-474.875,-1929.375,1285.125,594.5,242.625,85.625,163,-127.875,-43.625,-2188.625,4536.875,203.5,-613.5,-2038,1546.75,576,227.875,72.125,161.5,-83.2499999999999,-27.7499999999999,-2481.625,4984,229.875,-589.5,-2116.75,1653.25,490,243,145.375,197.75,-90.5,4.12499999999988,-2880.125,5458,187.125,-605,-2023,1587.5,488.5,247.375,113,269.875,-29.5,12.6250000000001,-3202.625,5559.375,115.5,-550.5,-1853.375,1470.25,502.374999999999,262.375,126.875,276.25,37.1249999999999,37.75
"1",-525.625,-1811.625,1971.875,352.625,-46.3749999999999,18.5,48.25,-3.12499999999994,61.75,30.875,-127.75,-498.625,-754.625,550.5,-154.375,-962.625,-801.5,1634.375,70.5,-76.375,62.625,28.4999999999999,14.75,225.125,-142.5,4.12499999999995,-3280,3168.875,23.625,-319.25,-1642.25,1528.25,582.25,-85.5,24.875,36.5,33.375,34.125,35,-229.125,-28,251.625,993.375,-114.25,-732.25,-1240.25,1766.875,156.125,-57.8750000000001,39.75,65.875,20.375,251.125,-66,10.25,-3799,2432,0.500000000000015,-294.875,-1624.875,1217,795.749999999999,-17.625,7.875,18.1249999999999,35.375,20.125,0.625000000000013,-250,11.25,487.75,1125.375,-153.875,-785.125,-1362.5,1842.25,176.5,-65.75,39.375,12.125,4.37500000000014,212.375,7.49999999999998,10.625,-2860.125,1343.125,160.25,-260.25,-1428.75,641.499999999999,1034.5,-48,-18.7499999999998,53.75,22.1249999999999,17.25,132.5,-339.75,1.87499999999994,-1365.375,2587.875,-64.3749999999999,-480.875,-1714.75,1953.375,295.5,-70.625,45.5,55.25,4.75000000000005,117.375,46.125,-49.2499999999999,-1122.5,-786.874999999999,342.5,-142.125,-1033,-404.124999999999,1381.875,28,-20.875,51.375,24.5,16.875,223.625,-180.5,21.375
"1",92.7499999999997,-87,-148.625,131.875,-815.25,1202,-168.875,-1286.875,-2166.125,3088.375,469.125,-51.8749999999999,-68.625,-21.2500000000004,-6.3749999999995,-4.62500000000027,242.75,-109,6.75000000000029,-4805.5,5373.875,76.8749999999999,-430.375,-2633.5,1314.25,1733.375,161.75,-93.125,-38.2500000000005,-2.25000000000033,-1.50000000000017,24.6250000000003,-29.6250000000002,-308.5,59.6249999999999,-5500.375,3253.75,-76.4999999999999,-843.75,-3033.25,3359.375,778.5,10.9999999999999,-86.2499999999999,-14.1250000000001,10.875,16.2499999999999,131.125,-57.5,-111.625,-96.625,266.124999999999,760,-184.125,-1485.125,-1777.5,2965,339,-80.5,-52.125,8.62499999999992,-2.62500000000004,-20.875,239.125,-115.75,32.375,-4092.375,5629.75,135.375,-358.875,-2413.875,987.124999999999,1730.5,122.25,-97.625,-24.2499999999999,15.1249999999999,-5.87500000000014,-1.12499999999983,1.12500000000061,-304.25,40.4999999999998,-6209.25,4173.25,-32.2499999999996,-680.25,-2866.125,2929,851.625,7.87500000000033,-61.3749999999999,2.37499999999998,8.12500000000029,-3.50000000000004,85.2500000000001,-86.4999999999998,-170.374999999999,120.625,-2174.875,1539.5,-136.875,-1092.875,-2432.125,3125.625,501.625,-48.8750000000004,-60.2499999999999,12.25,-4.87499999999973,-2.74999999999982,259.375,-36.7499999999998,-8.12500000000045,-1184,3078.75,341.374999999999,-267.875,-1877.25,-647.875,2413,245.124999999999,-82.3749999999999,-47.2499999999999,-11.25,-3.99999999999993,3.87500000000012,169.375,-151.625
"1",828.375,229.5,419.875,-269.375,-637.375,-11.7499999999999,80.8750000000001,-93.9999999999999,6.12500000000008,-34,-17.1249999999998,-8.37499999999975,287.375,-272.875,43.0000000000001,85.625,2233.875,201.125,291.5,528.125,-1047.5,-104.625,70.4999999999999,-3.62500000000001,-56.6249999999999,-19.8749999999999,-3.62499999999999,-31.1249999999999,217.875,-226.625,-32.75,248.25,-1750.5,311.75,231.875,568.75,-892.624999999999,-378.5,35.5000000000001,70.1249999999999,-114.625,-27.25,-13.9999999999998,-23.875,-3.12500000000007,189.75,-295,34.5,-584.125,2158.125,208.25,338.375,226.625,-1016.5,-33.0000000000001,85.2499999999999,-70.2500000000001,-55.6250000000001,-50.4999999999999,-6.9999999999999,-48.5000000000003,244.5,-309.375,17.5000000000001,104.125,2002.75,177.25,260.5,418.5,-1095.5,-124.875,53.8750000000001,-52.3749999999997,-34.6249999999999,-17.8749999999996,-16.5000000000001,-10.7499999999998,289.375,-259,64.2500000000002,-47.2499999999997,1851.75,240.25,296.875,382.375,-956.874999999999,-117.25,65.7499999999995,40.4999999999998,-33.3750000000004,-11.1249999999999,-17.7500000000003,18.0000000000001,99.375,-115.625,-148.375,252,-2544.875,487,261.875,550.75,-643,-473.249999999999,37.5000000000001,95.25,-43.8750000000001,3.87499999999996,-24.6249999999999,-27.375,20.3750000000002,124.25,-253.375,67.0000000000001,-1332.625,1321.125,266.75,481.125,77.1249999999998,-837.375,-1.87499999999997,105.125,-56.125,-29.3749999999999,-15.6250000000001,22.7499999999999,-2.87500000000002,416,-234.625
"1",946.500000000001,856.25,-2786.625,-116.624999999999,220.124999999997,160,-11032.875,9773.49999999999,1303.125,-2377.125,-936.500000000001,29.5000000000022,-127.749999999999,-64.9999999999916,4231,980.25,836.500000000001,-3065.125,-215.625000000003,133.749999999996,106.000000000003,-10757.375,10173.125,1189,-2402.25,-1059.375,-50.2499999999959,-146.500000000001,-9.75000000000071,-458.625000000001,994.124999999998,979.249999999999,-3059.75,-217.000000000002,318.749999999997,13.8750000000019,-6773.12499999999,14679,1063.25,-1445.5,-1539.12499999999,-97.6250000000051,-116.625000000005,119.500000000008,-9742.875,1978.25,1317.75,-3016.99999999999,-353.749999999997,356.624999999999,-119.875,-2492.375,15787.5,880.999999999999,-336.625,-2088.875,-85.7499999999954,136.749999999999,150.999999999996,-13881.75,6021.875,1425.125,-2697.5,-588.625000000001,132.999999999996,-116.999999999996,15.2499999999974,2406.5,1095.875,1003.375,-3027.625,-102.624999999997,391.999999999995,89.3750000000002,-5696.125,14683.125,1067.75,-1411.125,-1636.375,-145.249999999997,59.500000000001,148.625000000001,-13665.75,4045.625,1420.875,-2937.375,-480.124999999999,167.499999999999,-95.3749999999998,-25.624999999996,3531.25,951.499999999999,913.249999999997,-2880,-135.875000000001,416.125000000001,-109.875,-4346.875,16046.5,969.249999999996,-791.374999999997,-1860.75,-107,149.249999999999,78.9999999999984,-14014.25,7311.25,1287.75,-2252.75,-789.375,129.249999999999,-52.4999999999996,241.249999999999,-6222.125,1580.75,1289.625,-2983.75,-149.249999999999,431.250000000001,-29.8749999999998,-811.75,12886.875,960.249999999999,211.500000000001,-2529.5,-122.124999999999,365.75,125
"1",6779.5,463.5,377.125,-1207.375,-170,-110,-34.0000000000001,15.6250000000001,-10.2500000000002,-4952.5,9391.49999999999,388.75,523.875,-1311.5,-235.5,-165.624999999999,-58.999999999999,108,-117.875,-2384.375,9580.62499999999,373.75,668.875,-1000.75,-391.25,-163.124999999999,-66.9999999999998,166.375000000001,-167.625,-985.749999999999,7240.625,439.624999999999,630.25,-839.874999999999,-478.125,-136,-52.6249999999991,266,-216.250000000001,-372.374999999999,3380.25,582.999999999999,695.499999999999,-617.375,-541.625,-107.875,8.37499999999962,299.125,-137.749999999999,-81.875,-39.1250000000014,765.25,694.375,-576.625,-576.875,-75.2499999999997,0.749999999999524,161.375,-133.750000000001,-13.0000000000001,-1852.125,820.125,651.875,-498,-666.75,-120.75,-42.875,168.625,-166.625,48.1249999999999,-5368.625,1327.25,625.375,-195.125,-851.875,-106.375,-12.25,155,-189.125,-7.4999999999999,-7893.25,2112.625,561.375,-28.8750000000001,-953.374999999999,-135.625,-46.2500000000001,90.9999999999999,-137.125,9.74999999999995,-9928.375,4014.875,501.375,221.375,-1085.125,-112.625,-55.125,32.8750000000001,-70.5,28.1250000000001,-7750.625,7896.5,435,503.625,-1218.75,-129.875,-72.875,-16.625,158.875,35,-3347.875,9499.49999999999,464.499999999999,694.625,-1157.625,-264.125,-153.5,-25.5,220.625,-182.625,-235.875,1625.875,654.5,699.125,-518.249999999999,-651.125,-120.5,-31.9999999999999
"1",10355.5,286.874999999999,118.249999999999,-799.25,5.50000000000069,-52.7499999999997,-41.7499999999986,-20.3749999999995,112.125000000001,-38.4999999999997,-695,5481.375,524.499999999999,224.249999999999,-639.625,-35.8750000000003,-52.2500000000004,-67.000000000001,-37.6250000000009,164.75,-202.374999999999,105.250000000002,-6481.375,1823.75,268.625,-387.375,-409.375,-43.124999999999,-88.3750000000012,-51.0000000000005,10.2499999999996,-168.5,-25.1249999999998,-8709.875,7136.5,316.374999999999,-5.99999999999981,-788.625,-25.3749999999993,-79.4999999999978,-60.249999999999,-31.6250000000002,6.75000000000081,14.1250000000009,-2302.875,9185.24999999999,430.124999999998,163.25,-742.124999999999,-102.875000000001,-102.875000000001,-67.4999999999986,-57.4999999999994,201.25,-264.874999999999,33.5000000000009,-3760.375,1176.5,276.999999999999,-409.875000000001,-291.25,-48.2499999999994,-79.3749999999997,-38.4999999999996,114.999999999999,-272.625000000001,-28.1249999999991,-8835.62499999999,3692.75,283.249999999999,-287.875,-569.875,10.7499999999997,-109.75,-98.3750000000014,-1.12500000000155,-125.125,-46.3749999999997,-7171.75,8423.12499999999,255.25,7.50000000000005,-764.75,20.2499999999994,-126.374999999999,-73.0000000000002,-20.6249999999999,-17.1250000000002,24.0000000000001,-2868.625,9809.12499999999,359.249999999999,196.749999999999,-725.5,-55.75,-86.4999999999997,-79.2499999999998,-52.3750000000002,129,-149,-332.624999999999,2814.5,716.749999999999,264.875,-549.625,-206.875,-52.875,-75.6250000000002,-17.8749999999997,187.125,-192,92.8749999999998,-5964.875,1646,264.749999999999,-442.25,-288.75,-11.6250000000001,-38.8749999999998,-70,113.625,-188.5,-3.49999999999998,-7820.875,2580.25,259.624999999999,-387.5,-480.375
"1",-2356.375,-187.5,119.875,-138.125,-49.7499999999999,303.124999999999,-492.75,115,-8600.49999999999,2316.875,831.249999999999,1047,-2253.125,-362.75,72.2499999999997,-151.75,-66.8750000000001,-24.6249999999997,83.9999999999996,-146.125,1643.75,7824.125,633.125,1267,-650.374999999999,-1381.625,7.1250000000002,-4.62500000000004,-99.4999999999997,-65.6249999999998,430.625,-635.999999999999,400.875,-9735.24999999999,1313.125,879.624999999999,898.25,-2440.125,-173.75,74.9999999999999,-133,-112.75,-9.50000000000002,-3.37499999999985,-123.25,628.749999999999,7222.125,652.125,1205.75,-992.875,-1044.125,106.875,-48.6249999999999,-201,-30.75,240.75,-212.25,2700.875,5717.375,605.75,1173.75,-423.875,-1533.5,3.50000000000018,-20.5,-180.875,-45.6249999999999,396.25,-451.75,1339.25,-3490.375,785.874999999999,1052,563,-2358.5,-66.6249999999999,53.6249999999999,-136.5,-86.2499999999999,284.125,-453.375,-17.75,-6952.375,3357,820.874999999999,1153.5,-1879,-563.999999999999,53.6249999999999,-114,-93.2499999999999,30.125,92.3750000000001,-76.4999999999999,1517.5,7650.25,641.124999999999,1204,-864.375,-1180,70.8749999999999,-19.5,-136.5,77.3749999999999,-53.7500000000001,-71.8749999999999,-645.25,6867.5,698.999999999999,1220.625,-1214.125,-888.625,99.875,-26.875,-143.625,150.125,-324.625,-26.7499999999999,-5533.875,4349.625,809,1181.375,-1811.25,-654.125,109.875,-111.125,-169.375,137.625
"1",-466.875,42.6250000000001,-32.1249999999999,297.5,-245.875,2233.5,4356.375,333.25,680.125,543.375,-1473.125,-30.625,-1.87500000000004,-60.2499999999998,-118.875,-101.625,-2953.5,4319.25,378.125,951.625,-561.625,-716.25,30.3749999999998,-74.625,132.5,-373.25,159.375,-10015.5,619,519.25,1023.125,-1548.5,-174.625,30.0000000000001,-42.75,314,-191.375,2416.75,7780.125,312.375,789.375,310.375,-1313.25,20.25,-51.2500000000001,101.5,-402.75,6.12500000000005,-10292.375,1387.375,412.25,943.75,-1192.5,-309.375,39.8749999999999,-71.4999999999999,270.625,-232.375,2172.375,3663.875,307.125,660.625,634.375,-1551.5,-26.8749999999999,-8.87500000000007,-45.625,-66.3749999999999,-113.5,-722.124999999999,5924.125,372.125,964.374999999999,-256.875,-879.875,33.875,-17.2499999999999,303.75,-410.75,438.875,-7458.125,509.5,522,993.5,-1582.375,-163,26.7499999999999,-70.75,-82.5,-94.8750000000002,-2032.625,5572.875,344.75,948.499999999999,-431.875,-780.749999999999,-5.74999999999987,-103.25,210.625,-400.625,393,-6105.375,485.875,539.375,917.499999999999,-1691.125,-109.125,-7.62499999999994,-101.25,230.5,-157.75,2642.625,6069.125,336.5,743.625,558.375,-1428.5,44.75,14.1249999999999,-40.0000000000002,107.75,-149.125,1583.5,7353.375,338.625,906.124999999999,129,-1184.875
"1",956.999999999999,-217.375,-894.75,76.9999999999999,-30.5,211.625,-466.625,-34.4999999999998,-3140,6443.5,250.625,790,745.25,-1594.25,-14.7499999999999,-79.875,-65.125,-132.375,-164.375,2342.5,6983,318.875,608.5,1237.875,-2223.5,-100.625,30.75,-112.625,433.375,-326.5,99.75,-12212.5,1188.25,388.25,1156.625,-752.25,-808.624999999999,19.5,-43.625,69.125,-382.25,-128.625,793.124999999999,9069.37499999999,272.625,613.375,952.875,-1940.5,-75.7499999999997,31.8750000000003,-56.0000000000002,-129.375,-114.125,2382.625,7807.25,314.625,533.375,1211.75,-2127.5,-103.875,27.3750000000002,-24.7500000000004,236,-192.125,741.249999999999,-2848.625,365.125,492.25,1261.875,-1909.5,-326.25,-3.50000000000004,-103.75,418.25,-356.875,153.25,-11802.375,854.124999999999,417.625,1191.25,-929.624999999999,-685,69.3750000000001,-63.3750000000001,378.875,-466.25,39.6249999999999,-11067.25,2111.75,343.25,1054.875,-289.5,-951.749999999999,43.25,-41.125,363.5,-479.5,2.75000000000007,-10741.125,2332.25,297.875,941.124999999999,-55.2500000000001,-983.499999999999,39.8749999999999,-47.5,379.625,-476.125,-21,-9308.375,3035.75,309.625,920.75,71.7499999999999,-1106.625,44.6249999999999,-56,275.375,-497.25,22.7500000000001,-8310.75,3514.25,313.875,949.75,82.3750000000001,-1217.625,3.62499999999968,-118.25
"1",-50.375000000001,269.874999999998,-313.000000000002,643.874999999998,-6872.125,483.499999999998,616.5,1222.375,-1801.625,-278.75,-25.125000000002,291.125000000002,-358.499999999998,576.499999999998,-7991.24999999999,515.249999999999,590.874999999998,1141.625,-1643.375,-279.000000000002,-35.2499999999982,332.624999999999,-310.374999999998,749.749999999999,-5384.625,423.749999999997,542.999999999999,989.875,-1663.125,-210.625000000001,-93.4999999999991,276.625000000001,-233.375,1221.75,-609.625000000001,345.249999999998,623.75,965.874999999999,-1922.25,-183.750000000002,-110.625000000002,241.249999999998,-254.125,1554.625,1529.875,268.125,619.874999999998,991.875,-2081.625,-141.874999999998,-94.3750000000005,261.625,-319.999999999999,1060.25,-2478.99999999999,354.375,636.499999999998,1123.375,-2048.875,-192.75,-86.4999999999996,279.875000000002,-375.375000000003,777.500000000002,-5462,409.499999999998,600.374999999999,1080.375,-1762.875,-216.75,-25.6250000000019,343.374999999998,-307.124999999998,663.375,-6843.62499999999,451.875000000001,566.374999999999,999.624999999999,-1541.375,-278.750000000002,-75.6249999999998,342.624999999999,-316.500000000001,587.874999999998,-7449.5,497.374999999999,538.750000000001,1044.875,-1574.75,-339.499999999999,-114,233.625000000001,-384.125000000001,398,-9998.49999999999,550.249999999999,524.000000000001,1158.75,-1423.75,-446.499999999999,-77.4999999999992,170,-424.625000000002,122.124999999995,-12420.25,1152.375,469.125,1166.625,-1012.5,-614.875000000001,-60.1249999999958,116.749999999999,-438.624999999999,-20.7499999999991,-10719.25,2856.875,382,1004.875,-325.249999999999,-879.624999999999,-69.625000000002,107.000000000002,-435.875000000001,-16.1249999999984,-9821.25,3241.5,407.250000000001,1041.25
"1",-32.0000000000018,293.375000000001,-391.249999999999,29.6249999999998,-7078.75,4072.875,373.749999999999,274.749999999999,-1091.125,-337.749999999998,359.75,-35.3750000000014,98.499999999999,24.4999999999986,400.75,-366.25,18.6249999999992,-7393.5,2163.625,307.125,250.875,-1486.125,220.625,198.249999999999,-4.62500000000034,-8.12499999999998,-8.37499999999904,182.500000000001,-113.75,-47.0000000000001,2255.75,473.375000000001,316.000000000001,-34.2500000000007,-1732.5,615.125,-0.500000000001448,15.7500000000009,-7.75000000000068,87.6249999999999,-329.125,20.500000000001,-2587.125,8090.125,310.625,330.874999999999,-606.124999999999,-1122.75,564,25.2499999999994,-18.7499999999991,35.0000000000011,376.375000000001,-330.875,20.4999999999997,-7211.375,1978.875,359.499999999998,216.5,-1595.25,286.874999999999,219.125,-30.3749999999989,-6.49999999999945,-6.49999999999976,41.7499999999999,-79.124999999999,-233.750000000002,5317.25,396.249999999999,319.374999999999,-187.499999999998,-1569.125,666.749999999999,14.3750000000012,-27.6250000000009,-24.6249999999997,151.999999999999,-393.624999999999,-25.5000000000001,-5264.125,5860.25,251.875,218.875,-947.874999999999,-660.375,386.874999999999,-96.5000000000001,-15.2499999999998,12.6249999999999,374.624999999999,-262.125,47.7500000000001,-6808.625,1789.625,330.499999999999,222.125,-1440.125,265.625,222,-76.7499999999997,58.375,30.1250000000003,85.5000000000006,-33.7499999999999,-135.624999999999,3918.75,475.25,295.249999999999,-104.000000000001,-1614.25,578.125,-3.62499999999999,-12.7500000000001,37.8749999999998,183.624999999999,-387.624999999999,68.8750000000002,-4801.875,6567,333.375,275.125,-882.624999999999,-823.875,417.375,-22.3749999999996,4.25000000000043,12.5000000000002
"1",1515.75,201.125,-46.8750000000001,40.875,-160.625,155.25,-67.6249999999997,3273.5,254.875,-120.25,-959.874999999999,-1826.875,1951.75,423.374999999999,73,3.99999999999995,-35.625,6.49999999999994,42.0000000000001,-6038.25,2732,16.5,-288,-2219.375,719.624999999999,1379.5,183,-14.3749999999999,62.1249999999999,-74.125,31.25,-551.625,5124.375,214.625,-91.1249999999999,-1097.375,-1723.25,2061,450.5,-29.5,3.99999999999988,-79.8749999999999,-44.625,141,-6668.875,2580.25,-3.24999999999998,-256,-2190.625,720.5,1273.625,77.6250000000002,-8.00000000000003,30.25,-74.7499999999998,127.625,-459.375,5036,187.5,-81.625,-956.375,-1526.5,1786.875,407.5,64.5,35.6250000000001,23.2499999999999,83.8750000000001,68.25,-4613.625,3811,-1.12500000000001,-112.25,-1643.375,35.4999999999991,1421.125,101.375,-4.74999999999996,17.25,-258.75,-36.375,72.75,-5105.375,1197.125,72.375,-382.125,-2227.125,1143.625,1018.75,70.9999999999999,-17.875,-6.99999999999998,-218.75,-75.7499999999999,75.25,-4679.875,1011.375,35.375,-445,-2300,1403.125,997.75,66.875,17.6249999999999,-28.5,-276.375,35.75,9.12500000000005,1333.75,404.875,-73.625,-727.875,-2087.375,1779.25,643.499999999999,33.875,13,88.3749999999999,38.125,104.375,-840.75,5982.625,176.5,-136,-1181.625,-1474.5,1906.75,382
"1",-1840.5,1582.25,-9.25000000000034,81.1250000000005,17.7500000000005,4.12499999999897,168.624999999999,-205.999999999999,-930.249999999999,5827.25,368.25,159.874999999999,-537.375,-2792.5,1901.625,100.875,25.125,43.2499999999996,2.99999999999999,256.375,-144.875,-2103.375,8346.99999999999,273.25,148.25,-931,-2066.75,1688.75,63.0000000000006,46.2500000000003,20.9999999999997,14.6250000000003,-105.875,-160.625,-7220.75,2172,198.75,-1.24999999999999,-2663,1423.25,514.749999999999,2.74999999999959,63.749999999999,37.2499999999991,200.624999999999,-172.375,-2168.625,8655.375,312.375,146.875,-954.125,-2010.5,1588,20.5000000000002,34.1250000000002,28.4999999999995,43.125,253.25,-186.875,-2499.5,9012.37499999999,271.25,147.75,-970.499999999999,-1823.125,1560,34.0000000000008,12.4999999999994,67.7499999999999,98.9999999999998,242.999999999999,-105.625,-2296,8224.74999999999,257.125,139.875,-924.875,-1765,1525.625,45.9999999999992,44.6250000000003,58.625,60.3750000000004,213.875,-83.3750000000004,-1611.5,7039.125,320.125,163.000000000001,-726.374999999999,-2026.25,1556.25,-45,-30.7500000000009,78.3749999999997,76.7500000000005,75.2499999999997,-201.124999999999,-36.8750000000002,-1466.25,541,183.5,-115.625,-2690.625,1702,183.625,-64.1249999999991,-2.24999999999981,-6.12499999999937,23.1249999999999,145.375,-51.4999999999995,-3722.875,7252.125,212.5,140.25,-1297.125,-833,1197.75,-120.500000000001,41.6250000000001,58.625,-3.75000000000042,25.8749999999987,183.125,-66.9999999999995,-2449.625,8080.75
"1",129.625,429,7555.5,241.375,621,600.5,-1617.5,-387.125,175.875,-49.1249999999999,-77.125,-86.6250000000001,-52.7500000000001,-12.6250000000001,239.625,-404.125,84.8750000000002,-10372.125,904.75,385.375,1089.25,-368.625,-1029.625,-25.6250000000002,227.875,4.75000000000027,14.4999999999999,87.875,36.5,47.125,42.875,46,171.75,2143.375,8094.625,341.75,592.75,1131.125,-1610.75,-589.375,73.5,-13.5,-103.875,-60.375,17.375,-8.25,27.875,-245.125,128.875,1780.875,8351.87499999999,184.625,614.375,844.749999999999,-1559.375,-432.25,31.8749999999999,-36.75,-92.9999999999999,-61.375,-65.375,43.875,-344.125,130.375,1096,7912.5,263.375,585.125,712,-1581,-416.875,122.75,-83.3749999999999,-84.9999999999999,-35.75,20.125,33.6249999999999,7.37499999999996,124.625,124,1713.25,4997.125,354.75,583.375,1117.375,-1401.5,-587.5,153.625,96.1250000000001,-140.5,-39.875,51.4999999999999,14.75,119.875,241.125,71.5000000000001,1024,507.999999999999,314.875,488.5,1062.875,-1217.625,-698.5,77.75,29.2499999999997,-88.8749999999999,-79.6249999999999,-50.25,-27.375,-1.37500000000001,-244.625,214.875,1836.375,8317.49999999999,313.75,578.749999999999,791,-1556.75,-441.124999999999,88.8749999999999,-11.2499999999997,-20.1249999999996,-63.2500000000001,-31.75,-30.3749999999999,113.25,-407.249999999999,94.4999999999998
"1",-4580.375,674.624999999999,-30.6250000000012,-667.124999999999,-334.375000000002,402.875,49.4999999999993,-192.125,-45.1249999999992,-39.2500000000011,130.999999999999,40.7499999999984,-921.999999999999,5720.75,90.1250000000004,-53.7500000000005,-1091,344.625000000001,289,-73.1249999999992,-107.875,103.125000000001,-18.8750000000013,-12.6249999999997,-566.25,-2275.125,400.625,-51.75,-835,-53.8750000000003,516.749999999999,79.25,-108,121.25,-16.6249999999992,-56.2499999999997,-581.375,-1013.875,309.5,-51.3749999999995,-927.875,62.3750000000019,478.625,55.4999999999999,-125.875,-186.999999999999,143,21.3750000000001,-2510,6248.875,130.000000000001,-184.875,-955.5,773.875,213.999999999998,-29.875,52.8750000000003,178.375,84.2499999999998,-595.375,4987.625,146.375000000001,-133.250000000002,-931.375,626.999999999999,273.250000000001,-81.8749999999995,115.375,73.2500000000008,94.7500000000002,-407.5,314.75,277.375,-27.3749999999992,-764.625000000001,286.125,313.625000000001,35.7499999999995,53.7500000000003,221.500000000001,57.5000000000004,-454.374999999999,4233.125,170.125,-30.6249999999993,-795.375,472.124999999998,146.750000000001,-5.50000000000114,-352.374999999999,142.374999999998,-10.6249999999992,-3887.25,3545.625,77.2499999999997,-162.375000000001,-490.875,489.875,108.249999999999,65.6250000000002,35.9999999999998,64.1249999999989,-430.749999999999,-492.125,332.250000000001,77.0000000000004,-681.749999999999,201.375,305.625,114.875,89.2500000000006,196.500000000001,46.6249999999995,-482,3627.375,143.499999999999,-56.2499999999992,-798.125000000001,367.374999999999,187.125,42.1250000000001,-79.1250000000006,-334.25,-9.12499999999963,-118.375,-5623.875,1798.375,-0.375000000001559
"1",284.499999999999,913.124999999999,-316.5,-777.499999999999,182,-162.875,-115.375,-18.3749999999999,183.5,-153.874999999999,-1.74999999999988,592.124999999999,6027.875,185.375,625.25,371.125,-970.999999999999,-106.375,-24.6250000000005,-190.5,-27.6250000000003,200.875,-133,-5.25000000000001,482.375,5813.125,191.875,672.875,293.375,-1006.375,-72.375,-31.1250000000002,-178.5,-46.5,96.8749999999999,-172.5,35.75,-10171,1725.875,235.625,761.5,-109.375000000001,-822.374999999999,119.625,-100.625,-115.25,-6.00000000000017,-166.125,-259.125,732.75,-8406.99999999999,430.125,275.5,823.499999999999,-397.499999999999,-612.875,152.25,-196.5,-107.125,132.875,-144,-57.1249999999997,3962.5,7408.5,247.875,584.625,513.624999999999,-954.999999999999,-202.375,52.1250000000001,-230.375,-88.0000000000001,151.5,-114.375,45.1250000000001,-6283,2946.375,201.75,783,83.3749999999997,-967.875,42.9999999999999,-81.5,-181.375,-42.0000000000002,51.9999999999999,-237.5,43.375,-10847.875,1432.75,193.75,813.874999999999,-114.75,-875.624999999999,77.4999999999999,-143.875,-146.875,-43.2500000000002,-154.75,-249.25,561.125,-9450.87499999999,484.999999999999,283.875,820.624999999999,-361.375,-614.875,79.1250000000001,-199.875,-103.375,-4.25000000000015,-191.25,-202.75,1330.75,-4662.125,362,315.75,823.375,-529.499999999999,-583.75,127.75,-214.625,-60.8749999999999,7.99999999999984,-222.5,-202,1974.625,-1654.375
"1",-197.874999999999,430.125,-4115.25,374.124999999999,1075.75,2484.375,-3534.125,-717.75,26.4999999999985,-101.625,-292.500000000001,-154,138.625000000001,-8792.625,918.499999999999,802.125,2562.25,-2591.5,-1077.25,67.3749999999999,-2.87499999999865,-17.1250000000002,-3.12499999999898,100.500000000001,-6344.75,2402.25,709.499999999999,2467.125,-1475.125,-1550.625,16.3750000000002,52.7499999999989,29.4999999999988,12.7500000000006,60.625,-4518.875,3472.125,593.625,2296.125,-1000.375,-1830,-67.7499999999991,10.1250000000018,61.3749999999994,-12.6250000000006,13.7500000000001,-2023.75,4844.375,521.625,2081.625,-395.125,-2105,-125.25,24.8749999999991,50.6250000000004,-331,-61.2499999999995,1535.375,6763,414.625,1524.625,1364.75,-3317,-290.500000000002,2.37500000000048,42.8749999999997,-533.5,-125.999999999999,912.625,2260.375,378.500000000001,1269.875,2083.375,-3650.375,-430.499999999999,26.9999999999998,-51.8749999999997,-534.250000000001,-219.749999999999,356.874999999999,-4902.625,378.499999999998,1080.875,2458.625,-3557.875,-684.625,11.2499999999996,2.12499999999993,-560.75,-198.374999999999,467.499999999999,-2934,333.375,1081.25,2329,-3621.625,-580.874999999998,43.8750000000009,-87.8750000000012,-332.625,-186.125,129.5,-8654.99999999999,643.375000000001,817.625,2457.5,-2860.375,-1033,-53.5000000000017,-35.8749999999998,55.1250000000013,-95.4999999999991,-12.4999999999996,529.375,7100.5,492.624999999999,1855.625,438.25,-2626.625,-129.374999999999,120.125,14.6249999999996,-349.124999999999,-61.3750000000006,505.375000000001,-5056.75,429.375,1045.5
