"1",-832.971788237752,-506.818785415457,5400.70481800755,-1454.16509551013,1537.78047238544,-1251.13706096195,-0.883883476485785,195.51502499808,-4675.74359059604,-682.446432192665,1843.78093194392,-734.77233400047,-476.324805476787,4953.63655560236,-2254.87513685625,1743.28338066779,-1575.25713178833,-64.7886588262167,299.371333484855,-3912.95215039106,-385.461584094316,1392.47002885161,-428.595097746696,-588.6663953378,5346.52276089913,-1647.6471885123,1534.42171517481,-1256.08680843025,27.6655528139247,266.579256507328,-4602.55803874324,-499.747717603592,1738.06846815653,-641.345850536199,-463.06655332954,5171.16027916487,-1966.99428856568,1795.60928247559,-1528.14614249178,4.15425233947055,265.076654597307,-4188.10507662027,-623.314627615942,1579.05783073721,-588.489618642504,-576.115249971739,5554.85409630622,-1223.82506153862,1448.59662960829,-889.010000646785,112.076424818068,188.620733881513,-4884.25170269843,-671.397888736625,1886.73766890101,-951.94250417239,-430.804806437904,5148.3560854716,-1725.51732279047,1716.76687637329,-1566.32990867585,92.4542116401414,290.267333677078,-4613.42980550398
"1",-643.555559227407,-198.962170556365,539.699250740633,-2211.47645816093,-390.411331562623,1371.7871555019,-168.291413922399,-445.12371875693,2670.12359410805,-1846.25580567807,212.308811051261,1279.24455551411,-82.4663283558832,-419.667874634216,5417.76376910368,-1011.51625048735,652.747947382832,320.054206834561,-84.2340953088479,-357.707642932743,4632.87524198661,-3672.00551470174,984.646192802266,-18.4731646584984,-90.2445029489329,17.5008928343663,367.430361174062,-3376.25810347047,1135.259937195,-447.33342744814,-150.171802654491,474.291873480878,-2735.7077480631,-1140.82840309685,1411.65030029129,-440.615913026867,-397.305622679191,2791.56918377684,-1254.84937156318,189.858170748587,895.727515068057,69.5616295992259,-489.671445971683,4857.55842170863,-3156.17111782615,883.353146397293,-15.026019100214,-33.0572420204712,-54.270445456068,1337.13892322376,-3505.48186773231,1095.57356910091,-500.36643603713,-171.473394437738,325.711061084053,-2829.66456161327,-1046.42964780844,1398.03849475345,-546.063211771311,-417.811719333601,3961.91929498823,-1775.81029260236,248.10609184883,1131.72440328907
"1",-1207.47321722368,-2840.09438663577,1378.94661166141,-126.13017209415,166.965588707674,4802.58086947138,-1342.44222408266,2973.91434497532,27.2236110756821,-122.329473145273,-510.089154278446,1661.25899405014,-3295.6479304152,4063.30072974084,-197.10601525575,-428.241544356103,-3678.72302912301,-1167.43329573899,-2607.63303232069,1244.15438149773,-123.124968274108,324.031682478735,4366.64953886987,-1902.73595982535,4288.956181287,-100.232386233193,-373.617545509442,-3646.81483562197,-1284.01752628712,-2730.31605885655,1334.8408261849,-117.20294898167,519.369930781519,3755.09056149116,-2246.12469043907,4330.94064641995,-196.487296822212,-497.361232217087,-3391.19573422303,-1305.49589476566,-2295.09183503623,1007.36199814788,-142.216851366144,143.012346494979,4776.24114187218,-1343.76804929738,3194.35488401023,42.8683486094344,-24.9255140368258,52.7678435460461,2628.22751732275,-2643.60708981355,4279.58701643628,-203.469976286429,-374.854982376518,-3165.98222441512,-1269.3450605775,-3604.21165205548,2638.21540060701,-105.270522049147,-380.246671583066,-3615.08341881622,-1407.84960134242,-3375.10905495104
"1",-519.546707476815,2093.47801405042,3123.11387580568,-1597.53099539571,-58.7782511861315,-381.926050188384,2357.14045508535,4373.1018882482,6265.05446966046,-4502.59081755299,124.362405141184,-652.924724078128,637.103209849079,1250.42995418076,5181.23655079678,-7313.60543781246,-35.9740574928656,-285.93630464231,312.099255546212,-5364.0236537335,2652.88786631663,-5398.31833262105,-310.596653636191,-175.185705038967,76.3675323681469,-398.012729460377,2189.55614794414,3125.76552623513,-1707.30932317492,-149.022754135065,-556.934978532054,1565.18086015642,2922.6491033393,6219.71124731687,-7090.6900250434,146.282715357967,-378.125351239506,351.166905206769,-6058.04895946809,2567.15116909776,-4650.72968821157,-505.758125243678,-261.187567300781,-183.494209717909,2035.84881138372,4150.36325217444,6557.2663469858,-3918.25545124995,133.643181644257,-442.206903284537,253.497781055377,-1064.54925907635,4861.80106239575,-8163.19423540809,56.2149891043305,-223.092189464356,331.898245419436,-3308.9945709101,1780.22970998478,-327.743993079965,-850.207516029174,-251.288072364169,-240.327917255778,2077.12616973548
"1",5875.79218661726,1181.13348962448,-2662.78736125324,592.555482634326,-82.466328355881,-1248.4854105325,8069.59097524852,822.630351562899,-956.62708659775,515.392455137344,-434.517117039133,-6023.22395049466,3207.96668954807,-1929.95957090103,225.655451546157,545.267716642476,-287.615683247628,-4775.0037050051,1372.05232054485,-4082.83455457112,772.337381751006,587.075405080131,145.663996924429,4566.67236959802,1854.03398027113,-4091.67338933595,396.244962507411,-382.014438536032,-1264.92564319508,7782.41723373914,484.279756765137,-517.160222090311,308.652109987928,-302.022983914304,-6304.29889601631,2561.05237311003,-2721.03528235348,934.706776380967,466.602087235473,-11.8440385848746,-5036.01449561059,1743.99048744897,-4347.02732569195,578.236570315299,267.463139983811,109.513162736267,6337.44452638443,1435.16160076575,-2799.34735836989,237.764655173977,-420.374981415402,-1161.68805314185,7838.89738788641,114.374521856924,-580.888220744748,588.6663953378,-471.816999746724,-6784.42440044198,2631.85143957633,-2047.5160732733,445.919213885766,556.758201836758,-79.8146779264315,-3374.75550156045
"1",-523.082241382748,-3339.48855084877,5504.82629153727,-689.871053395125,442.825621718075,158.657084028731,-484.721698503378,-7236.44241031547,2296.59443694626,-2167.90100277031,145.487220229132,446.803097362249,-315.458012756848,-4430.99625595785,1122.53201513364,-3592.89794355649,862.405108004642,376.269195938891,7.68978624540346,3365.73989010032,1594.96773331391,-3742.27425108215,511.94530957906,189.769782400939,-312.187643893861,8673.63694307713,1744.25565249191,-2942.89003495076,478.534514167996,-566.304143382776,-1759.01650654918,7307.86019521532,9.10399980777693,-121.710754711734,241.300189079909,-563.210551215085,-5553.08632935325,4064.09622486968,-1218.25659563677,0.530330085889963,535.456610053512,-460.326514552442,-6847.00335057698,1537.16175395191,-2949.43077267674,488.875950842849,641.434238883847,-65.0538238691624,-3348.3273856136,1455.40253237721,-4110.14655399445,810.609536282728,508.409775673127,-25.8977858609574,4352.0654615079,1871.0045430196,-4239.72387164689,438.582981030956,-73.0971635051595,-728.319984622143,8197.48891429564,1133.05022850379,-1570.04221927708,456.525815603564
"1",-1123.94622869602,-506.376843677215,-435.754553906208,9314.89440526568,1114.57706384529,-687.39617966097,-399.161777979805,-395.361079030929,10907.3872648454,535.456610053512,-263.750829382583,-219.468267210774,-592.467094286679,10541.6362822767,-305.470129472589,222.031529292577,-48.7019795542231,-632.595404119014,10336.0449856467,-304.232692605513,335.698944368313,-148.404035701527,-840.838351178453,10063.7204865422,-788.070507632407,285.671139599362,-188.002015447973,-978.812561857475,9975.15536219862,-570.900337460487,287.969236638221,-159.364190809917,-960.33939719898,10217.7813764933,-648.416918348064,192.598209525687,-81.4940565317489,-1217.90304224618,9734.91583329049,-922.509184405498,245.542829767028,-190.300112486829,-682.004490454423,10290.0830448696,-367.695526217005,211.336539227129,-212.308811051262,-616.773889889966,10625.6052125426,-142.040074670847,208.861665492976,-168.73335566064,-322.705857264011,11125.3529301462,494.886358482935,385.196419051372,5.21491251125091,-106.242793873278,11316.5369261095,598.389113579115,53.2097852842868,-176.776695296638,-143.277511537924,11105.6423286206
"1",-251.288072364169,10676.516900788,807.781109157982,-191.714326049203,-234.847839701582,-201.613820985814,10510.5235839045,475.971252086195,-30.9359216769115,-208.242947059438,-820.950972957581,10032.1658464318,-328.804653251745,148.22725900623,35.6205041022724,-2215.54232215275,7882.38445492939,-1383.36602904383,369.109739779378,144.956890143242,-3558.5148763213,6264.52413957457,-2174.08818710569,296.808071403053,-177.66057877312,-1706.24866300314,1424.4666107003,-2714.14099123691,-413.038748560592,227.06966510853,-6095.70239556628,2992.82945137206,-3179.32886491001,86.0018622618138,173.152773043056,-7531.21754972262,1399.09915492523,-3873.26578229696,-40.0399214846883,111.369318036881,-7409.86034840148,995.341182867713,-4158.67175685338,-188.267180490918,79.1075711452447,-6918.59791217212,1059.86467665099,-4123.93513622759,-368.667798041136,13.876970580786,-5646.24764777458,1034.58560922357,-3746.34011507398,-319.523876748671,65.1422122168107,-4130.47587395357,1125.0068888678,-3299.80218275467,-244.482169595249,-256.50298487542,395.891409116819,1093.80580214794,-2509.87551982165,-192.333044482741
"1",7022.18905561595,318.99354666278,-427.622825922564,166.788812012377,-4167.51059161821,3710.98477601465,-4007.52768237476,-158.657084028731,-44.9896689529941,1353.75593258164,1169.99655782079,-1068.26156967758,-219.998597296664,-1747.8795747455,7422.49988211518,-3035.25585824325,-41.1889700041162,141.509744584958,-3841.88791888181,1151.52339316229,-2347.15257180109,-331.986633767084,-464.65754358721,9231.36741673802,-1724.1031092281,-76.5443090634437,233.080072748616,-5526.21627166816,1202.78863479832,-3259.58548457469,-348.692031472616,-442.206903284537,9563.44243885275,-608.200220168079,-25.6326208180124,182.787102936722,-5666.40019103839,1667.44617838553,-4026.79634216209,-974.127979432117,8364.71966804626,-591.583210810195,-182.256772850833,1.7677669529663,161.662287848774,-5299.05821821198,1243.09372132595,-3468.80070345825,-420.993699848941,-311.038595374432,9430.50636398968,-1268.19601205807,-10.4298250225016,249.16675202061,-5922.99156426146,1331.12851558367,-3760.21708565476,-314.750905975662,-497.803173955329,8403.96409440211,143.189123190276,-57.364037623759,242.626014294634,-4605.47485421563
"1",-76.8094741063878,-6179.84810252748,1594.61417992331,-1540.52051116254,5.92201929243961,29.9636498527797,-5110.08393093988,2176.56306083984,-1054.47298744444,106.419570568575,37.8302127934799,-3640.45087459129,3599.26190458717,-156.005433599282,-11.8440385848771,-165.286210102356,-521.31447442978,8047.2287232935,1179.18894597622,-625.612724654796,-262.866945906098,-52.5910668507496,8218.26017599299,1320.25674882293,-1448.2430762177,-262.8669459061,-136.471608769004,4890.9692171197,1065.43314255283,-2401.15785221422,-117.202948981669,-372.380108642367,485.340416936917,747.058314323588,-2714.14099123691,-35.3553390593276,-304.497857648456,-3713.81320313939,841.015127873749,-3169.95970005929,11.8440385848731,-168.733355660642,-6012.44057208156,816.885108965756,-2766.82044643531,-167.230753750617,-110.220269517453,-6370.3249917096,910.39998077768,-2488.39715134311,-34.383067235197,-110.131881169804,-6069.71622135767,761.907556728505,-2293.67762147386,110.485434560399,-108.098949173892,-6136.3610354845,928.961533783826,-2161.62543008728,103.414366748533,-144.07300666676,-6076.61051247424,1698.11693501949
"1",-417.900107681249,-8811.25760036556,1989.3565405207,220.528927382553,-475.882863738546,-422.496301758962,2.65165042944963,106.331182220927,-1355.96564127285,9843.27994750733,1536.10109378012,-2588.54114922865,70.2687363804135,-77.3398041922787,13.7885822331376,-161.839064544071,-1844.92998046335,1191.74009134228,-2476.72988945353,619.160375276471,-410.563874826439,-53.2981736319361,-522.817076339804,-9105.76757472976,1195.27562524821,-177.572190425472,-124.715958531777,-303.967527562567,-105.093745353851,57.3640376237586,-2701.41306917555,8213.75237026293,1417.74909627903,-2183.45735195641,-50.6465232024872,-172.710831304814,17.3241161390704,-135.676113640169,2019.58535541643,1311.68307910104,-2718.82557366227,536.252105182348,-343.21195391842,-71.6829499427866,-285.671139599365,-3276.37927062787,1198.10405237296,-2271.05020447589,539.345697350039,-365.3090408305,-126.306948789447,-347.012652867298,-4893.09053746326,1126.95143251606,-1914.22644501963,485.870747022806,-277.185858225127,-62.7557268303058,-656.195092941116,-8181.66740006659,1130.1334130314,-992.601144090616,237.145936740438,-405.702515705781
"1",1253.6119346961,-1445.5030374406,-22.1854752597278,-360.359293362194,2391.96546405879,1576.58295700305,-2397.26876491769,84.6760370470892,-41.2773583517646,-6858.58222411891,1449.03857134653,-2668.79776889333,-7.42462120245839,453.432223435873,-6184.17913156224,2308.70364057408,-1506.22583227499,-5.39168920654785,461.652339767166,-866.824525387058,7784.98049582094,217.170170171918,-441.588184850999,-125.157900270018,-574.435871366422,3591.39534164647,1370.19616524423,-2388.51831850051,-45.961940777126,28.107494552165,-7509.56240454878,1135.79026728089,-2532.76810186256,-111.634483079826,315.016071018607,-1192.71236316641,6945.02602811897,206.56356845412,-371.849778556476,-53.2097852842876,-456.26065056062,4095.65086498013,1454.87220229132,-2319.57540733482,-26.2513392515504,295.040304450087,-6764.80218726405,1631.29534419736,-1935.70481349817,-50.5581348548382,262.159839124912,-104.651803615609,8721.89698089311,883.795088135536,-738.131091211107,-40.8354166135232,-528.827483979889,-2523.57571370714,1490.05076465535,-2888.70797784234,-77.9585226258168,387.848069480821,-5034.33511700527,3656.62594221093
"1",-5382.85037178259,487.903679018718,-2769.20693182181,737.335596082272,-20.7712616973547,239.974363865184,-6999.29647357503,623.491404311238,-1902.6475714777,1331.04012723603,79.4611245358381,369.905234908212,-6451.907436589,953.887047820652,-1791.27825344082,1575.52229683128,20.771261697355,544.914163251883,-4691.12316308685,2676.66433183403,-713.470742217226,1874.27491188259,72.1248916810278,246.426713243512,-89.5373961677463,7461.92108516633,319.170323358078,51.6187950266165,18.8267180490918,-84.676037047089,-407.293505963451,-1705.27639117901,494.974746830583,-3062.56785766658,626.938549869522,3.62392225358107,201.613820985814,-7441.32660016428,459.707796118904,-2591.98829478694,1383.36602904383,117.556502372263,527.059717026922,-5892.1440309322,1354.02109762459,-1141.44712153038,1953.02892963724,16.8821744008288,578.059793620002,-6038.95707637606,1259.35717729324,-1254.14226478199,1862.87281503596,50.8232998977829,403.66958370987,-6665.10013111674,681.120606977941,-1815.49666069646,1521.51701641815,105.358910396796,119.235880977581,-7199.40769265083,515.834396875586,-2228.18185586646
"1",11836.2604102816,281.428498912246,552.603949497286,28.637824638056,-172.357277914221,-445.300495452228,-5292.95942222425,767.210857587404,-3925.06135401887,800.886818041413,-397.040457636246,-169.970792527716,-8574.64199371101,2258.67583580513,-3195.32715583436,1542.4650548108,-377.153079415375,3.62392225358093,-41.9844651329511,11112.5366197372,603.869191133312,-383.16348705546,221.236034163741,-239.974363865185,-305.91207121083,-9707.07350378127,990.30304705176,-4008.14640080829,1311.15274901515,-433.191291824408,90.5096679918776,-95.7245805031291,11662.1353654144,554.283328102605,-148.050482310933,220.352150687258,-207.977782016493,-385.638360789613,-7030.76272533784,760.228178123186,-4119.33894214988,851.356564548603,-431.511913219091,9.1039998077768,-4067.45498208032,7297.9607002787,-1490.66948308889,1693.43235259413,-236.350441611603,-87.5928525194835,-164.49071497352,6175.42868514506,814.056681841012,-2104.17300411587,473.938320090283,-334.638284196534,5.65685424949222,-8242.47858324863,3190.37740836605,-2866.69927927791,1636.59864505626,-415.955564032986,72.0365033333796,-330.307255161766
"1",-164.048773235279,-6884.30323328458,1789.4220981402,3104.02199271364,-1802.06163185392,-404.907020576947,-47.9064844253882,-13.9653589284347,-200.553160814034,-2140.50061499933,1482.71453180054,4262.70484203545,-2584.03334349859,-446.361155624008,-89.4490078200986,-19.7989898732231,-238.029820216922,-3334.27363833751,1455.84447411545,3744.66073646866,-2155.61502244719,-409.061272916418,-122.064308102328,31.4662517628016,-229.102597104441,-1375.14591271254,1477.67639598459,4662.57372679644,-2859.45143477075,-358.945079799821,-55.5078823231436,10.7833784130949,-158.65708402873,295.128692797735,1439.75779484346,5240.01480198291,-3452.36047079567,-415.160068904152,-98.7297843231721,-55.9498240613852,-146.371103705615,-899.793379059882,1543.17216159199,4944.88610918517,-3045.50890657046,-419.93303967716,-91.9238815542509,19.4454364826304,-202.674481157595,-6918.33274712918,1873.03747501551,2935.73057879125,-1705.18800283136,-413.127136908241,-110.131881169804,-23.7764655173974,-144.338171709703,-6720.25446004929,2021.61828741234,1736.56586624651,-1332.36595245075,-387.317739394931,-49.4974746830582,14.9376307525657
"1",-2455.16313262734,-518.574435652684,-63.8163870020864,-106.949900654465,2953.58502501621,1705.36477952665,5559.98062046982,-5749.66201452311,-738.396256254052,-51.3536299836728,210.452655750646,5972.13548555393,4028.47572076741,5483.78986479697,-7407.65063971027,-816.089613836923,-158.568695681084,52.5910668507493,9.54594154601817,3283.36195009208,1875.51234874967,6279.81532371772,-6785.04311887551,-749.444799710092,-90.3328912965819,-59.3085812720208,-169.617239137123,-9130.69308876659,2507.48903443514,2955.35279196917,-3285.66004713094,-587.075405080131,-43.3102903476763,136.029667030762,6247.28841178314,4312.11392837086,5310.99064514451,-7128.60862618453,-935.502271509802,-268.965741893833,-13.8769705807853,-151.93956960746,-7675.99766317056,2835.85174594865,1047.40191963257,-2332.12655270088,-471.463446356131,58.6014744908352,203.116422895836,1655.60213980065,-303.437197476677,4793.8304230542,-6134.50488018389,-1163.36743174717,-195.338248302784,-58.9550278814283,-162.192617934664,1041.30312364484,1998.99087041437,5323.71856720587,-5096.56051374969,-704.101577366504,-78.6656294070034,88.3883476483183
"1",-11510.7261258929,4534.05706931579,901.207592622254,-1899.46559096236,229.279373799738,-3836.05428793702,13048.1530448877,3139.55410846827,-4734.96378352042,-18.6499413537942,-284.964032818179,16414.3348767263,3147.50905975662,-7042.51837557506,-304.674634343753,-630.032142037213,3307.40358065242,2867.49477440674,-6146.61408381171,-451.841233178204,-335.522167673017,-10321.7260733277,2773.80312589953,-3367.50765705328,-682.79998558326,128.25149243771,-11718.1735778235,4240.16581338513,467.927912450197,-1681.05798392337,404.553467186353,-5242.31289902177,11034.2245437208,2968.25749072583,-3724.33141650954,290.532498720022,-795.583517182514,15785.1866181655,3281.94773652971,-5951.62938889952,-63.9047753497344,-390.764884953216,16093.4851747629,3178.79853482412,-6811.47123482236,-283.373042560509,-399.073389632157,15812.5870059365,3209.99962154398,-7093.0765104299,-261.71789738667,-363.099332139291,15988.8333711473,3226.08630081597,-6872.01725296146,-195.691801693377,-323.501352392845,15146.7575831017,3289.37235773217,-6713.00661554213,-47.1993776442019,-405.437350662837,12451.8852516521,3081.48296406332
"1",-998.25799834011,1593.90707314213,170.324345918308,-32.4385235869311,4598.66895144671,632.948957509608,-2996.89531536389,261.010790605485,44.3709505194521,-6701.69290704315,5018.51360277622,-904.743126528188,1583.83080151021,12.2859803231168,-268.877353546184,3417.80062686518,583.363094478901,-3650.88069961379,324.915565955216,-12.1975919754656,-7274.71456484719,5104.60385338568,-904.743126528188,1577.46684047953,88.1231826053729,-211.248150879485,4653.73489203161,628.883093517783,-3465.70711129057,342.858400527831,-10.7833784130945,-8417.22234654936,3624.187418624,-1150.72789803345,1372.67103897839,146.459492053263,-56.3917657996259,8802.15360055778,572.756492761103,-2440.84422030831,-1.23743686707452,-447.686980838729,-10035.4362152948,1057.56657961213,-2440.13711352712,1078.16106461419,157.331258814006,-327.036886298774,11201.9856275573,536.782435268238,230.870364057406,279.925897002225,12.3743686707642,-7125.95697575507,822.188409824658,-3284.51099861151,730.176139922758,150.171802654493,-2483.71256891775,9316.22023048041,24.3951839509366,864.261263305255,-43.2219020000276,-353.818555636219
"1",-494.356028397045,-518.486047305035,687.219402965675,1070.02933663054,-719.923091595553,-150.525356045086,-216.816616781325,-6807.84731256878,595.737463149666,-13.3466404948963,61.4299016155813,132.49413312483,-1870.56260128136,3260.38097970352,1195.27562524821,-410.740651521735,-294.421586016549,-90.8632213824714,4204.63369763051,1166.81457730545,-716.122392646676,-404.288302143408,-426.915719141378,-3597.93607937245,837.037652229575,-715.415285865489,-37.2114943599417,123.036579926459,-5005.25535062897,617.834550061746,609.967987121045,-56.8337075378688,-176.06958851545,647.533034871581,5678.95133640446,1584.44951994376,-984.99974619286,-370.789118384696,-436.019718949155,-3914.98508238697,714.973344127247,-361.861895272215,-70.533901423358,-27.8423295092203,-5005.52051567192,398.012729460378,364.867099092258,122.329473145273,16.7937860531807,-982.878425849301,4079.47579736049,1443.02816370645,-670.69078195544,-308.121779902038,-78.9307944499486,4725.77139536499,1575.34552013598,-1060.83694847512,-286.289858032903,-480.832611206852,-3125.32358449689,810.432759587432,-375.120147419463,-144.868501795594
"1",-78.4888527117066,-3.62392225358102,434.605505386781,-4388.21629569606,1539.01790925252,1922.97689143681,-1706.33705135079,-149.199530830361,151.939569607459,-463.862048458375,5093.64369827729,1706.77899308903,-1993.24562781723,-32.8804653251744,-171.826947828331,67.9706393415568,406.232845791671,6534.72731833547,1913.0773965002,-2898.60747277895,39.0676496605567,-163.341666454092,1.23743686707651,-562.503444433898,5369.59211963534,1422.78723209498,-2660.04732247614,-0.176776695296557,-228.483878670903,-45.9619407771254,-82.0243866176395,-5282.70637389705,815.20573036044,-291.062828805912,-205.50290828234,-235.731723178065,-20.5060966544099,350.194633382637,-3945.83261571623,1623.87072299491,1807.09976766987,-1553.86715165744,-37.1231060122937,-76.4559207157956,107.21506569741,526.971328679274,6152.62449145179,1572.95903474947,-2760.10293201404,166.965588707673,-259.243023652518,-109.778327779212,-333.666012372402,124.450793488833,1055.18009422562,-1463.71103705615,-11.8440385848747,-316.783837971573,-2.91681547239447,253.232616012432,-5919.10247696494,657.344141460544,1433.83577555102,-941.866232540481
"1",-60.7227948343955,-97.845900846689,967.852406749087,6915.23915496149,1842.63188342449,-3904.29009232152,44.9896689529942,-281.782052302839,-97.2271824131505,-125.334676965316,-537.931483787667,-4250.06530832174,1352.43010736692,3828.71805508221,-5479.37044741455,-70.9758431615991,-144.426560057352,-71.5945615951388,141.156191194364,-303.702362519621,-6996.73321149324,762.614663509692,4920.40253688659,-3181.36179690592,-244.658946290545,-125.776618703557,-52.7678435460456,295.040304450087,-31.9081935010435,-422.849855149555,837.126040577224,2996.80692701624,-948.583746961753,-285.317586208772,-50.9116882454311,-77.9585226258137,-64.9654355215164,992.777920785913,6371.03209849079,1695.2001195471,-3446.88039324147,25.8977858609576,-280.191062045169,-69.3848529039307,-33.1456303681186,-390.49971991027,-938.68425202514,5148.26769712395,2896.66292913069,-6402.94029199183,70.1803480327644,-252.437120883597,-30.4939799386702,-9.89949493661378,-526.087445202791,-3412.14377261568,2411.67606558437,3399.50423890197,-5947.74030160299,-21.2132034355956,-115.081628638111,-2.56326208180084,60.1040764008561,-384.489312270186
"1",6393.39435044581,2632.38176966222,-5099.56571756973,47.7297077300916,-141.598132932606,85.3831438282756,-492.853426487023,-6514.92832846225,1504.36967697438,2926.36141394052,-759.609459689648,-6.54073772597555,77.2514158446295,158.21514229049,1190.41426612755,6646.09663637236,2569.97959622251,-4440.18864411327,48.7903679018717,-99.2601144090622,83.526988527661,-452.0180098735,-8266.34343711368,960.427785546628,1176.97923728501,-603.780802785663,-310.950207026785,-183.582598065557,-177.572190425471,1083.90630721133,7568.51743243021,3140.5263802924,-4421.71547945478,145.840773619726,-41.5425233947098,329.246594989985,-116.407453852835,-4924.29162418311,1064.01892899046,-1158.50607262651,-62.2253967444154,-112.606754903958,-60.8111831820428,-548.891638896058,-2768.58821338828,3925.06135401888,3889.97118000249,-2606.7491488442,-98.1110658896332,-123.213356621756,163.430054801741,1021.85768716221,7358.24155337486,2918.40646265218,-4756.17698695601,144.073006666759,-1.85615530061454,449.631524486997,-54.0936687607701,1026.18871619698,1712.34745899087,-3604.74198214137,120.119764454065,-171.915336175978
"1",-172.534054609517,271.882557366227,-6674.20413092452,1169.73139277785,-2107.5317613265,44.1057854765106,-147.520152225043,-316.43028458098,8356.23438667202,437.787485902121,-779.320061215223,-191.095607615664,291.062828805913,-7059.93088006178,1173.53209172672,-1795.43250578029,7.42462120245867,-36.9463293169969,-365.662594221093,9073.77099288107,19.4454364826293,-17.4125044867186,-111.546094732178,294.686751059493,-6987.71760003311,622.519132487107,-2088.26310153917,63.5512219591411,-51.0000765930797,-340.118361750729,9043.2770129424,336.671216192445,-604.929851305091,-136.559997116652,322.529080568714,-7222.2118863441,932.497067689759,-1819.20897129769,6.09879598773397,-17.7660578773121,-309.977935202653,8721.89698089311,-9.0156114601294,-120.738482887603,-236.262053263955,251.288072364169,-7029.967230209,1179.36572267151,-1891.51063967401,-20.0641549161684,-112.429978208661,-325.180730998164,7532.2782098944,574.789424757015,-1146.39686899869,-114.374521856924,328.981429947041,-6848.77111752995,1502.33674497847,-1777.66644790298,73.8926586339943,-67.8822509939087,-383.075098707812,8478.74063651259
"1",1217.54948885559,-2588.18759583806,478.534514167996,-263.220499296692,-315.458012756848,-4051.19152611303,358.679914756876,-1042.09861877367,191.007219268016,-98.9065610184683,-284.698867775234,9039.12276060293,-418.165272724194,529.092649022834,-15.3795724908075,102.353706576752,-3942.2970818103,4670.52867808479,-2161.00671165374,819.890312785801,-253.232616012432,-334.196342458292,-6368.64561310428,354.879215807998,-2036.29075312196,547.035483595442,-13.2582521472477,-573.375211194641,7473.05801697002,-49.143921292465,279.660731959279,81.2288914888046,65.3189889121073,-1261.83205102739,7989.06919054091,-1618.30225709306,883.971864830832,-89.714172863043,-79.3727361881902,-6650.51605375477,456.879368994158,-2235.96003045951,384.312535574888,-192.598209525686,-259.331412000166,5921.40057400379,-59.9272997055598,236.173664916307,-123.920463402942,-76.6326974110922,-1748.49829317903,6870.77981609438,-1854.29914531407,698.886664855254,-206.740345149417,-256.061043137178,-7192.51340153426,655.222821116984,-1966.90590021803,207.712616973548,-225.213509807915,-378.125351239506,8136.41256607065,-288.853120114704
"1",2241.70527305665,16.1750676196415,-281.870440650485,1533.44944335067,-299.813275223095,-41.6309117423572,72.1248916810272,-34.4714555828443,-3765.52038651366,1426.14598930562,-3222.63915525769,1554.04392835273,-149.729860916251,-344.2726140902,2312.7695045659,-149.199530830362,7.24784450716199,166.435258621783,124.804346879426,-4630.8423099907,1225.41605179629,-3337.7207838958,1668.33006186201,61.6950666585285,-249.343528715909,6113.82200683418,-962.902659280778,1703.68540092134,65.3189889121076,-13.523417190193,-5090.3733294143,459.000689337717,-2944.39263686078,829.789807722414,127.544385656524,-256.679761570715,5510.12959239617,-2278.563214026,2266.80756378877,-42.6915719141386,-348.957196515561,2574.84095534316,-433.279680172057,299.901663570744,120.738482887606,-17.5008928343674,-4952.48750708293,451.222514744669,-3313.67915333545,1086.73473433607,43.3986786953242,-269.849625370318,6053.98309547627,-1672.48431420148,2175.41401232041,0.53033008589078,-250.315800540037,-3611.81304995323,82.8198817464728,-1160.45061627477,346.924264519648,207.977782016494,-4047.21405046885,1973.6234146393
"1",-118.351997501098,-96.5200756319642,-621.370083967678,-6214.23116976267,326.329779517591,-802.389419951435,-120.9152595829,-38.8024846176119,-516.629892004421,1551.83421966153,235.731723178065,-65.407377259756,-159.010637419325,89.625784515395,-514.420183313212,5344.48982890322,370.347176646454,155.740268556337,-220.705704077851,265.518596335548,99.8788328425998,6481.25236800824,58.1595327525936,508.232998977831,-203.293199591132,315.3696244092,-2415.2115994903,3435.65507309014,-814.498623579254,340.648691836619,-229.986480580924,8.75044641718335,-5673.73642389321,473.673155047338,-1082.49209364896,12.5511453660611,-172.44566626187,-702.775752151779,-4200.65622198633,432.837738433815,-680.325111849107,-211.690092617722,-74.8649304581254,-536.517270225292,4128.08938856706,320.672925268099,175.892811820154,-235.731723178065,250.492577235335,252.790674274191,6324.98176936602,9.89949493661152,520.695755996244,-146.282715357966,370.347176646454,-2539.57400463148,3202.92855373211,-794.080915272492,421.612418282478,-236.969160045142,447.068262405194,-3557.01227441128,2580.14425620206,-797.086119092535
"1",1668.24167351436,-2570.24476126545,95.0174737219459,92.7193766830864,279.042013525742,1266.958575191,6809.70346786939,2303.13517467223,-1973.88857968224,-27.6655528139203,-43.6638437382675,47.8180960777379,868.415515644726,6751.27877007385,2045.30636458209,-1089.03283137493,-44.4593388671034,-120.915259582899,237.676266826328,282.047217345784,6720.077683354,1813.46372870055,-1318.75414691291,127.63277400417,-190.034947443886,118.440385848748,-3713.90159148704,2633.88437157224,1099.63943309273,-484.721698503378,-133.643181644255,32.3501352392836,-178.279297206662,-4794.0071997495,1525.40610371468,369.640069865265,-191.360772658609,-318.905158315132,-117.026172286374,-429.655757918475,-6594.74300638869,917.029106851304,-1058.09690969802,1.85615530061669,-114.286133509277,-14.849242404914,-137.178715550194,-1790.21759326904,1054.73815248739,-3102.16583741303,128.69343417595,91.3051631207133,270.026402065613,325.711061084053,5982.03498049054,2254.69836016095,-2776.36638798133,298.575838356018,-817.857380789893,290.886052110615,990.568212094703,7207.09747889623,2051.67032561276,-1637.2173634898
"1",1496.14956064309,-2751.26409724921,-59.3969696196699,-207.712616973548,-70.8874548139514,-25.1906790797708,-300.608770351931,-3429.11433536416,1156.56152897825,-1927.92663890512,-69.2964645562816,-292.035100630044,-114.109356813979,-26.5165042944955,-219.20310216783,4166.18476640349,523.347406425693,1067.11252115815,-1043.51283233605,-190.30011248683,-104.298250225016,-25.9861742086056,203.823529677022,625.170782916556,-2343.79381459046,1679.4669936657,-3042.94564448866,1.41421356237311,-145.222055186187,5.48007755419573,-3.62392225358108,-352.404342073845,707.018392838899,950.086348871774,-238.471761955163,-329.158206642338,-274.269042752732,-83.8805419182542,-60.8111831820431,226.716111717937,2276.44189368244,-940.36363063046,1684.06318774341,-2829.04584317973,-57.9827560572969,-245.719606462325,-60.5460181390981,-51.1768532883764,-426.82733079373,-3498.41079992044,1084.08308390663,-1275.88579830348,-116.937783938725,-287.438906552331,-101.381434752621,-73.0087751575111,237.764655173976,4390.16083934432,770.304449755095,1701.03375049189,-2372.69680427146,-54.2704454560675,-133.466404948961,15.7331258814007
"1",-39.9515331370398,159.540967505214,-413.569078646482,526.175833550439,2613.02472152724,-5435.88338037158,104.121473529719,-262.425004167857,-41.0121933088199,104.121473529719,1275.79740995583,2566.09050892598,2713.43388445573,-892.899087943312,-235.113004744527,-128.958599218896,27.1352227280337,-643.113617489165,-4691.47671647744,1899.73075600531,-4949.74746830583,95.4594154601839,-355.674710936833,-133.908346687203,277.981353353961,1864.37541694598,4000.72177960584,3631.61203982646,-3225.55597073008,-46.8458242536086,-201.171879247573,-59.2201929243733,-347.101041214947,-1144.98265543632,1266.6050218004,-137.178715550188,-154.060889951019,-306.795954687313,-33.4107954110645,267.905081722053,504.167134986008,2165.95645912204,3327.37934722095,-4231.59214366324,101.204658057325,-203.116422895835,-29.7868731574834,-51.1768532883762,-509.647212540204,1599.47553904397,1586.74761698261,-548.980027243705,-412.861971865295,-346.39393443376,-207.6242286259,-803.803633513807,-2890.74090983825,1974.77246315873,-5353.15188697275,131.521861300698,-239.797587169888,-53.9168920654742,353.19983720268,2429.70728850462
"1",-7024.6639293501,2065.01696610766,-1978.21960871701,-280.191062045169,-433.368068519705,428.506709399048,1541.58117133432,4091.7617776836,3173.31845726993,-5208.10660848186,-72.4784450716211,-252.260344188301,125.246288617667,1735.68198277003,5848.21502215099,4263.41194881664,-4239.98903668983,-344.095837394904,-104.121473529719,-719.481149857312,-4287.10002598639,2515.0904323329,3299.62540605937,-2137.14185778869,-431.51191321909,-37.0347176646454,-848.704914119153,-10061.3340011557,1822.83289355127,468.281465840791,-683.595480712095,-433.279680172056,308.210168249686,309.977935202653,532.009464495228,2746.4911264762,-4571.35695202338,-35.1785623640308,-298.399061660723,17.8544462249605,1589.57604410736,5704.14201548423,4212.41187222356,-4162.9143975405,-308.386944944983,-118.351997501098,-860.460564356379,-9559.46496320858,1801.88485515862,1255.55647834436,-981.81776567752,-476.148028781491,418.342049419491,1281.80781759591,3823.14958918036,3341.43309449703,-5525.42077653933,-66.8215908221288,-285.671139599365,-599.449773750895,-2960.30253943748,2962.86580151928,3537.03650784276,-2487.24810282368
"1",-4774.03143318097,-673.34243238489,-84.5876486994405,-4567.90980646509,2148.27878959238,2573.95707186668,-1927.21953212393,-809.195322720356,250.580965582981,-3139.11216673003,3423.28070441937,4164.68216449347,-3679.16497086125,-732.916178699855,189.062675619751,479.064844253887,7935.77101690897,4830.33481063295,-6570.78976417599,-471.375058008482,-245.100888028787,469.872456098459,-1273.41092456932,6045.93975584027,5143.58311469859,-6394.98534070348,-366.634866045225,-246.161548200566,387.406127742579,-2287.13688374789,4932.77690555735,5081.71127134477,-5521.08974750456,-642.141345665034,-188.885898924457,282.754324126969,-734.860722348119,6426.00965072804,5060.85162129977,-6410.98363162783,-512.917581403192,-154.679608384557,-28.9913780286505,-4669.90995965125,2154.73113897071,3476.40210135601,-2729.60895207537,-679.883170110864,36.2392225358085,-374.147875595333,5292.78264552895,4024.85179851383,-6821.72428314956,-181.90321946024,-280.986557174004,252.879062621837,-2027.36353000948,4080.00612744638,4793.30009296831,-4866.22047977817,-664.591985967706,-116.319065505188,-454.492883607652,-262.513392515503
"1",2752.32475742099,261.629509039023,-80.4333963599714,240.68147064637,-446.095990581063,3735.46834831323,-198.16667542753,-951.854115824742,610.763482249881,156.800928728117,-530.241697542263,102.353706576752,-86.9741340859456,-1137.11609249562,471.286669660834,22.8925820409143,-611.824142421661,-6418.40825283029,-78.1352993211136,-2109.82985836536,649.035636781602,-61.6950666585261,-582.302434307122,-9858.65951999814,138.681317460211,-2799.87768845578,817.150274008704,-94.2219785931071,209.480383926515,-5097.17923218322,6125.931210462,-2322.84577619781,2684.35411807943,178.898015640197,-53.0330085889908,462.182669853057,-1311.2411373628,10226.7085996057,-1510.55686130976,2792.01112551508,302.995255738435,484.898475198675,69.2080762086333,11675.0400641711,-1015.75889117447,2486.54099604249,326.594944560536,-74.5997654151809,333.400847329457,-375.385312462408,6121.95373481783,-290.797663762968,-389.350671390843,527.236493722219,462.359446548354,-118.617162544043,9510.93976034965,-543.49994968951,1355.78886457756,337.555099668928,-87.9464059100765,20.5060966544101,-541.555406041247,-9151.64112715924
"1",-1229.12836239751,155.828656903987,-16.5286210102359,-1777.48967120768,290.267333677077,1252.90482791491,-405.525739010484,85.6483088712208,42.6031835664879,-3076.97515833326,56.3033774519792,-76.7210857587389,20.7712616973551,19.8873782208702,158.126753942842,482.865543202763,372.73366203296,-967.76401840144,147.873705615638,45.0780573006425,695.35113094932,1790.48275831199,638.340646716157,-1155.23570376352,69.5616295992316,38.4489312270191,77.1630274969819,127.190832265931,397.040457636246,-856.041146973964,-52.2375134601547,-25.8093975133096,-89.0070660818573,-1977.42411358818,304.409469300809,1058.9807931745,-417.900107681248,-21.7435335214872,17.8544462249613,9.19238815542518,-3559.84070153602,-4.86135912065841,207.712616973548,152.116346302757,-43.8406204335674,73.2739402004523,129.754094347731,356.646982760966,354.437274069756,-731.855518528076,92.8077650307347,-26.0745625562552,65.3189889121067,231.577470838594,1489.43204622182,1051.99811371028,-804.068798556751,82.2011633129352,-16.3518443149376,42.6915719141393,-3656.53755386329,131.96380303894,346.747487824353,103.944696834422
"1",247.222208372342,-41.7193000900025,-316.076731190388,-2442.87715230422,503.54841655247,725.403169149747,-181.019335983756,-366.723254392876,-1981.04803584176,630.38569542781,1001.5283672031,-205.149354891746,-472.877659918503,-1318.66575856526,1013.19562909268,1326.9742632442,-320.584536920448,-380.953778364252,-1032.11073548941,1401.83919370233,1420.75430009907,-395.979797464465,-301.846207219006,-900.677262536364,1284.81302141596,1419.25169818905,-478.622902515646,-484.721698503377,-964.051707800213,1247.86669209896,1411.91546533424,-407.293505963451,-451.310903092312,-1095.83873414385,1190.6794311705,1440.46490162465,-491.5276012723,-476.766747215031,-897.848835411617,1380.62599026673,1538.75274420958,-547.035483595442,-338.9693132313,-735.744605824602,1739.39429337126,1630.05790733029,-624.728841178316,-378.832458020691,-616.597113194667,1682.56058583339,1583.47724811963,-549.421968981946,-565.597036601591,-937.711980201009,1337.13892322376,1377.97433983728,-507.083950458403,-436.550049035047,-1090.71220998025,1315.30700135462,1413.50645559191,-429.744146266126,-476.943523910327,-1314.1579528352
"1",-3806.53257982248,1091.15415171849,-1944.543648263,-263.750829382586,-334.638284196533,-5608.68260002405,839.86607935432,-1079.04494809067,-159.01063741932,-438.052650945066,-5723.8526170098,836.595710491334,-1243.71243975949,-288.234401681167,-191.183995963314,437.964262597416,1467.68851270033,-2849.02160974825,-430.804806437898,911.018699211217,4238.8399881704,2321.87350437368,-1211.18552782491,-409.061272916423,-5518.70326211805,1294.35896296197,-1424.90855243854,-30.7591449816133,1280.83554577178,4557.83353483319,2524.28282048833,-2023.65121940825,-248.989975325312,-2417.42130818151,1310.09208884338,1124.03461704367,-198.255063775179,-281.25172221695,-1766.61790444694,1142.86133509276,-2454.10247245556,-187.029743623842,888.744835603843,4664.78343548765,2240.55622453722,-1905.74116364539,-438.671369378603,-1785.26784580074,2314.62565986652,1911.30962954724,-984.734581149915,-571.872609284626,-319.435488401026,-5561.65999907513,658.228024937028,4.59619407771831,-234.405897963344,-341.532575313101,-62.8441151779521,483.661038331599,3932.13242183074,2454.19086080321,-1648.00074190289,-192.244656135094
"1",-305.912071210829,9.01561146012808,-629.67858864662,-1129.33791790256,2496.08693758851,-5096.73729044498,37.9186011411287,-545.267716642476,-79.991454621728,-238.11820856457,-5780.50954785237,1680.70443053277,204.619024805855,-260.392072171946,-602.543365918587,-163.164889758796,502.222591337745,2005.00127805445,4284.71354059988,4656.29815411341,-4283.74126877575,-408.177389439934,-291.151217153561,-58.6898628384833,-561.707949305064,-2663.84802142502,2156.32212922837,-3718.49778556476,-63.6396103067885,-615.448064675241,-188.797510576808,295.747411231274,635.335442896113,1528.32291918707,3713.10609635821,-1791.36664178847,-769.862508016853,-239.620810474591,400.310826499234,2878.89687125338,3417.62385016988,4194.02709591271,-4099.89350566725,-553.311056278473,-235.820111525713,474.557038523822,2353.42814448413,4159.73241702516,4715.25318199484,-4291.5194433688,-327.213662994074,-188.532345533863,509.29365914961,2415.3883761856,4310.87649150378,4498.96689529941,-4308.49000611728,-254.204887836564,-217.346946867215,421.170476544237,2323.72965967429,3946.45133414977,3894.30220903726,-5084.36292177422
"1",-580.181113963562,-57.5408143190549,95.3710271125357,1686.53806147756,1025.30483272049,5951.62938889952,-2698.7614187461,-536.517270225293,-59.1318045767246,-141.509744584958,-1791.27825344082,1034.40883252827,3926.82912097184,-1132.07795667966,-507.172338806051,-25.1022907321227,-230.163257276221,-4017.25040061607,1244.06599315008,2775.0405627666,-899.086272278695,-505.581348548383,-130.107647738325,-99.5252794520065,148.669200744472,1012.93046404973,5472.47615629798,-1965.49168665566,-624.021734397127,-139.83036597964,205.591296629988,2993.71333484854,2389.84414371523,5950.21517533715,-4809.3867722403,-612.619637550495,-171.385006090089,231.400694143298,3287.42781408391,2876.33360917158,5881.5374292144,-5607.35677480932,-526.70616363633,-110.662211255694,283.903372646398,2478.67443310179,3169.4293699734,6609.23869540301,-5180.175890625,-584.865696388922,-111.899648122771,313.690245803882,3158.02727312677,3622.24287497574,6046.91202766441,-5988.57571821651,-632.948957509608,-112.518366556309,260.303683824297,2899.75652129838,2475.22728754351,4655.14910559399,-6749.95294485913,-545.002551599532
"1",-624.905617873614,134.438676773092,2572.80802334725,-4683.87531857969,-132.582521472478,-441.853349893944,-102.530483272049,449.189582748754,275.329702924512,2352.80942605059,3155.81756443556,-2163.03964364965,-750.240294838925,-110.485434560398,148.669200744472,442.118514936889,2676.22239009578,2972.85368480354,-4996.94684595003,-417.634942638304,-222.031529292575,6.71751442127265,-536.340493529996,1234.52005160406,2693.01617614896,-5300.29565507906,-152.116346302756,-392.179098515589,-44.8128922576959,-628.617928474839,-351.166905206768,2640.15994425527,-4904.40424596224,-92.100658249548,-485.782358675158,-102.795648314994,-24.5719606462315,-3688.44574736433,1309.11981701924,671.75144212722,-421.877583325424,-648.593695043359,-91.2167747730645,285.317586208771,1045.72254102726,3568.7679246485,3215.03775735993,-4728.24626909914,-377.418244458318,-197.989898732234,-92.1006582495484,505.316183505436,510.707872711983,2312.32756282766,3203.28210712271,-2164.18869216908,-769.332177930962,-96.5200756319639,40.0399214846879,-521.93319286332,-955.743203121267,2199.01370114251,-4123.75835953229,-135.764501987818
"1",-3147.15550636602,-449.101194401105,3008.82774229641,2436.33641457825,4059.41164244432,-4514.8767978761,-225.920616589102,-181.726442764942,-183.670986413206,-141.686521280254,-117.910055762857,-181.019335983756,-3812.18943407197,1435.0732124181,1774.57285573529,-2502.62767531449,-756.162314131364,-101.734988143215,11.4904851942815,127.367608961226,-74.9533188057739,-81.7592215746945,-494.444416744693,2534.71264551083,-2287.75560218142,-796.732565701942,-984.822969497563,-4752.99500644067,1626.43398507671,-586.103133255999,-1106.09178247106,-359.47540988571,-26.5165042944953,119.677822715822,-110.485434560398,298.664226703668,2731.28833068069,2510.40584990754,4100.07028236255,-4148.77226191677,-540.141192478873,-463.331718372485,-39.1560380082049,-225.920616589102,-54.6239988466605,63.0208918732509,1019.73636681865,1074.7139190559,4233.53668731151,-3867.07859796158,-90.244502948933,2923.35621012048,2177.80049770692,3537.65522627629,-4596.01730101726,-107.657007435652,-121.003647930548,33.4991837587125,-46.75743590596,10.1646599795564,-57.452425971407,-4499.05528364705,1479.09060954696,1424.02466896206
"1",308.386944944983,-138.062599026673,-3.80069894887713,-114.639686899869,79.0191827975965,-670.602393607793,11847.22056539,288.499566724112,-172.003724523627,64.9654355215131,-121.533978016438,147.520152225043,-1160.89255801301,11695.7229375208,158.480307333435,59.9272997055593,-16.8821744008296,-150.702132740383,327.655604732317,-2670.30037080335,9481.85999397336,-354.348885722109,485.163640241617,-113.225473337496,-126.837278875335,452.813505002335,-7200.46835282261,4690.76960969626,-1260.24106076972,535.810163444103,-184.466481542038,-62.2253967444167,392.267486863237,-9212.80586373188,2755.86029132692,-1667.71134342847,410.121933088197,-223.180577812005,-92.4542116401426,272.059334061524,-10738.9190742277,1149.04851942814,-2201.04663313843,385.991914180208,-187.648462057379,-22.715805345618,-173.152773043054,-7343.48069931759,677.496684724361,-2664.28996316326,246.780266634103,-156.977705423413,-37.0347176646459,-637.45676323967,-586.545074994243,616.862278237614,-2156.94084766191,215.137238176009,-176.953471991935,-71.2410082045467,-707.548722924788,-1371.16843706836,659.642238499401,-2165.42612903615
"1",-3317.21468724139,-93.7800368548656,-226.185781632046,-461.740728114815,74.1578236769394,-140.802637803772,-208.68488879768,-65.2306005644592,114.904851942814,-2329.29812557614,1042.45217216427,-1315.13022465933,-1284.81302141596,-19.268659787333,-264.89987790201,-11560.6655423142,215.844344957195,-558.791133832668,-873.276874765386,-248.989975325313,-187.118131971488,9337.16826887306,876.282078585429,-3163.59573902861,73.6274935910496,-356.646982760965,-182.521937893777,-180.930947636107,265.076654597307,-13502.0272100618,1355.08175779637,1182.6360915345,-1119.3500346183,-148.934365787417,-9505.81323618605,1298.33643860615,-981.110658896336,222.031529292576,-237.145936740439,-19.6222131779268,26.0745625562548,142.040074670848,-8259.18398095417,7960.43136590285,1566.5950737188,-3833.66780255051,182.079996155535,-738.749809644646,14432.3145690604,989.24238687998,-3357.51977376902,-837.391205620167,-47.906484425389,92.2774349448442,-491.704377967596,-354.879215807998,-12328.2299532922,1615.91577170656,965.112367971987,-1320.34513717058,188.002015447974,-6083.68158028611,1206.0590036613,-1622.27973273724
"1",239.444033779294,-305.38174112494,-9351.57556953973,438.229427640362,1641.90194591516,-525.380338421605,35.0017856687339,-531.213969366394,-6147.23280224525,2380.65175555981,2316.39342681948,-1645.70264486404,-79.1075711452452,-637.987093325561,-273.650324319194,8530.5362082345,1588.07344219734,-2729.87411711831,110.220269517453,-25.1022907321225,17.2357277914222,5276.87274295226,822.10002147701,-1664.70613960843,74.8649304581257,271.617392323283,-6.0104076400857,-3483.64994586317,582.037269264177,26.1629509039024,-109.424774388618,269.849625370315,-489.936611014628,-8721.98536924076,960.162620503683,1975.12601654932,-922.420796057851,102.442094924401,-627.115326564818,-3546.84761443172,5524.2717280199,1984.84873479064,-2299.51125241865,105.889240482685,-526.529386941033,124.097240098239,8237.52883578033,1646.23297494993,-2728.37151520829,124.185628445887,56.3033774519794,-31.2010867198564,4489.86289549163,729.557421489219,-1653.74598450004,82.6431050511779,289.029896810001,-178.367685554307,-7681.21257568181,466.160145497231,884.767359959666,-396.598515898005,99.7020561473031,-599.007832012653
"1",-5562.89743594221,38.1837661840736,1222.85278971448,-184.46648154204,530.8604159758,-173.064384695407,-2465.94651104043,153.707336560426,948.141805223511,-102.884036662643,178.809627292548,-390.676496605567,-6157.22068552951,126.041783746502,1194.83368350997,-120.473317844658,316.783837971573,-225.301898155564,-3641.77669980601,2.20970869120777,1201.37442123594,-69.2964645562817,400.487603194531,-150.613744392735,-2024.26993784179,142.835569799683,991.628872266484,-96.0781338937222,361.331565186326,478.004184082106,6054.69020225746,577.175910143519,-52.7678435460462,128.605045828303,-210.010714012405,-698.975053202902,6247.0232467402,657.786083198785,-178.279297206658,27.7539411615719,-172.357277914221,-114.639686899869,6274.51202285882,616.862278237614,-151.586016216866,62.490561787361,-68.4125810797984,5.21491251125061,6562.0393177588,615.006122936999,-259.861742086056,61.2531249202846,-137.17871555019,-333.047293938864,6401.87963182005,546.328376814256,-124.008851750591,75.2184838487187,-419.933039677161,-1493.14435682304,5393.81052689098,889.186777342083,-387.406127742579,172.975996347759
"1",184.554869889688,-12462.6686300652,1047.31353128493,-4093.88309802716,5.65685424950301,-327.567216384669,12968.6035320042,1072.76937540764,-2753.56219428806,408.884496221113,-7478.27292948127,7543.50353004573,-1650.74078068,-46.1387174724212,-177.66057877311,-8875.51592910589,780.911051472896,-4717.55127903369,11.8440385848778,-216.197898347787,15943.1365954131,815.028953665146,-1688.12905173523,396.9520692886,-9174.26854415722,5277.66823808109,-2007.03421005035,2.91681547240125,-191.802714396848,-4361.78817974921,1022.82995898634,-4229.82437671028,20.8596500449999,-526.440998593391,15300.8184730527,573.286822847002,-1176.80246058971,422.584690106613,-11383.270128584,2787.94526152325,-2657.0421186561,39.3328147034952,-163.164889758799,-4872.05411072297,932.32029099446,-4185.18826114787,87.9464059100805,-456.790980646511,15246.2828625537,580.181113963576,-1013.28401744032,347.631371300835,-12272.722070969,1615.91577170656,-3454.74695618217,-89.7141728630383,-352.934672159727,8394.94848294198,1053.41232727265,-3315.97725037432,225.567063198507,-4609.09877646921,10636.3885909557,-955.478038078322
"1",-467.662747407253,-131.787026343642,11784.376450212,2384.62923120398,-1925.00982343273,-579.562395530024,-6493.53834833136,2043.62698597677,-3879.98329671823,-433.191291824409,-11697.5790928214,1454.69542559602,-4079.74096240343,149.376307525658,-4743.80261828525,8377.88953184586,-1664.88291630373,33.4107954110653,-62.5789501350098,13615.2526833993,1378.23950488023,-818.299322528132,-221.147645816093,6901.98090281424,2371.19420236144,-2560.25687798119,-683.330315669148,-9893.21936392863,1629.3508005491,-4352.15384985555,-207.889393668844,-10140.8835140392,2833.99559064803,-3392.69833613305,264.811489554362,-1627.93658698673,11393.9651186494,-341.179021922511,-214.695296437766,59.8389113579115,13107.1964611168,2169.93393476622,-1433.30544546513,-453.697388478818,-1506.22583227499,2305.43327171109,-3549.76442990411,-451.929621525852,-11299.6547517087,1335.28276792315,-4255.89893926653,42.5147952188408,-6401.08413669122,6333.5554390879,-2145.27358577234,66.5564257791835,-154.326054993964,12959.4111438488,1308.23593354276,-687.307791313322,-178.102520511362,6180.73198600396,2488.7507047337,-2703.62277786676
"1",-478.004184082107,-10697.9952692666,1733.11872068823,-2285.98783522846,116.495842200485,-283.373042560507,8.48528137423465,2420.24973530625,1408.9102615142,-2562.90852841064,244.658946290547,-156.447375337523,-879.729224143709,13065.3003843315,515.922785223233,-965.112367971989,-293.184149149474,-272.059334061524,-6544.80358996738,7263.57763304351,-987.297843231717,-240.769858994021,-442.383679979834,-373.705933857089,-11042.5330483997,1168.67073260607,-2846.3699593188,206.740345149418,-213.723024613636,21.6551451738386,8914.58357876645,1366.92579638125,-2180.36375978873,41.5425233947105,-361.685118576924,-4206.13629954053,9096.75196326963,-653.455054164019,-344.979720871385,-415.248457251801,-412.154865084107,-10940.3561185183,1504.10451193144,-2409.02441515492,187.825238752676,-338.88092488366,-32.350135239285,-1861.63537816888,1384.42668921561,-2747.37500995268,317.667721448057,-130.637977824215,-20.9480383926499,13735.8143895916,1057.74335630743,-1534.7752685654,-144.161395014406,-219.82182060137,-1888.85898924456,12156.2262287685,11.4904851942859,-666.359752920667,-394.123642163848,-326.064614474643
"1",-1.50260191002143,-70.7106781186547,20.7712616973548,-744.318275546489,-6533.66665816369,799.47260447904,-339.411254969542,920.034310671346,-123.920463402942,-66.2028723885904,128.958599218896,-724.430897325617,-4366.38437382693,313.159915717992,-1196.68983881058,934.176446295077,-165.02104505941,-8.57366972188689,429.213816180234,86.7973573906487,6614.8955496525,407.912224396989,-2007.8297051792,196.487296822212,-145.752385272077,-55.3311056278473,555.520764969681,-70.7990664663031,7314.75448633188,486.224300413399,-1887.44477568219,223.710907897894,-172.357277914221,-75.3952605440156,426.120224012543,-254.470052879509,3994.7997603134,485.340416936916,-2149.86977985005,472.612494875558,-178.632850597251,-83.8805419182542,456.349038908268,-347.366206257891,3840.03176358119,401.54826336631,-2076.86100469254,476.589970519733,-145.310443533835,-18.4731646584985,614.299016155813,23.2461354315077,5976.64329128399,376.799526024781,-2138.73284804636,352.492730421494,-184.024539803799,-42.2496301758962,425.501505579005,142.393628061441,7203.47355664265,691.727208695739,-1819.29735964534,184.820034932634
"1",2132.89921710157,-52.5026785031011,-62.3137850920646,-12.6395337137096,381.572496797791,-525.910668507495,-6089.5152112309,388.908729652601,-2169.58038137562,2337.34146521213,-114.904851942814,-99.1717260614134,33.7643488016576,584.246977955385,118.26360915345,7707.81746832396,291.593158891802,-2912.48444335974,1220.81985771857,-224.506403026729,88.7419010389115,16.7937860531805,550.83618254432,-272.678052495062,-2712.90355436984,298.57583835602,-2405.57726959663,2015.5194914246,-214.164966351875,-100.232386233193,-27.8423295092204,424.087292016632,-391.648768429699,-3946.27455745447,245.896383157622,-2549.91544130634,2357.5823968236,-318.109663186298,-98.9065610184684,-39.8631447893914,319.435488401023,-835.535050319553,-9084.11242955592,820.950972957581,-1117.93582105593,2225.79537047995,54.2704454560677,-101.116269709676,-61.5182899632292,-88.3883476483181,-816.885108965758,-5654.55615245352,4448.93909053046,-211.159762531832,488.610785799904,193.747258045114,-208.331335407086,-56.568542494924,260.480460519594,-758.99074125611,-8432.86708408311,544.914163251883,-1571.3680444918,2431.82860884818
"1",-94.7523086789973,76.9862508016856,593.350977763161,187.64846205738,7137.80101433995,-258.182363480738,-3320.92699784262,1741.51561371482,-210.010714012405,135.499336944872,45.0780573006424,210.717820793591,-346.305546086112,-1990.85914243072,-124.097240098239,-2622.8358281162,3082.98556597335,-117.026172286373,-223.357354507301,-249.166752020609,64.5234937832726,-159.452579157566,-3683.31922320072,4260.14157995365,-402.343758495145,-24.7487373415292,450.515407963478,-170.059180875365,21.920310216783,76.1023673252014,199.846054032848,-629.855365341916,-7081.67441358327,724.165732282673,-916.233611722469,2656.8653419608,86.1786389571103,-293.626090887714,31.2894750675045,10.2530483272051,-98.1110658896335,-2142.17999360464,5446.40159374173,-530.948804323449,-730.706470008648,759.344294646703,-86.5321923477035,-128.25149243771,-110.92737629864,5.65685424949241,-565.331871558645,7370.43914535032,-274.180654405084,-2376.49750322034,889.893884123269,-151.144074478625,-63.6396103067888,-142.305239713792,-43.6638437382691,-537.754707092369,-7228.48745902713,490.820494491112,-1310.26886553867,3143.53158411244
"1",-443.355951803966,-4887.78723660436,131.610249648347,-2604.09749841476,569.309347202819,-555.078823231439,361.773506924567,-130.991531214807,-1955.76896841434,531.037192671097,-480.125504425665,9721.30402775265,-609.260880339859,-292.653819063582,962.637494237834,-928.254427002639,11575.0728429808,-1174.5927518985,959.720678765441,691.373655305148,-6764.44863387345,5041.75973820773,-2482.47513205067,1280.39360403354,-115.52357037635,-9928.48631464031,577.794628577058,-3195.32715583436,898.7327188881,-668.657849959527,775.342585571049,-407.912224396989,-2288.02076722437,536.163716834698,-581.948880916528,12091.1724048994,-918.796873804271,791.959594928933,651.156957125161,-8252.82001992349,2775.74766954779,-3236.25096079553,386.168690875503,-848.528137423857,-6532.42922129662,-300.343605308986,-2865.10828902024,538.7269789165,-614.917734589351,10887.3231099293,-505.051018462491,-202.409316114649,763.321770290877,-3257.37577588348,9010.30815926958,-1896.90232888056,1137.02770414797,184.554869889688,-9602.33331181801,1428.53247469212,-2964.3684034293,881.850544487273,-498.24511569357,-2109.29952827947
"1",363.364497182236,699.151829898199,-4784.99158828936,7411.80489204974,-727.701266188605,470.579562879646,-725.579945845046,-2194.68267210775,-5689.91149151285,-1704.65767274547,-5178.23134697673,-1619.18614056954,-1025.30483272049,-1764.85013749397,11558.6326103182,-12.904698756655,-507.525892196645,232.991684400967,433.368068519705,-8981.05161619798,3236.07418410023,-1313.36245770636,1080.28238495775,370.258788298807,-518.574435652682,6835.24770033976,402.785700233387,-1772.62831208703,296.896459750701,73.8042702863475,-9413.35902454591,1946.84174530186,-1981.75514262295,891.838427771531,733.358120438096,-621.900414053568,11956.9988931692,215.225626523655,-395.891409116818,129.135375914193,-367.430361174058,-8337.14250357999,1057.74335630743,-2481.59124857419,804.422351947344,858.86957409871,-2904.97143380963,9801.56064741732,-263.132110949044,351.255293554417,321.11486700634,-598.565890274412,7743.61474912153,519.458319129167,-1790.21759326904,376.622749329484,-671.663053779571,-2952.17081145383,709.758431615997,-2532.67971351491,675.198587685504,-679.706393415568,-4560.30840856734,783.474313554695
"1",21.8319218691346,-816.443167227517,6994.78866784497,694.644024168134,-2461.52709365802,429.920922961421,459.8845728142,-5744.80065540245,5874.20119635959,-867.708408863542,1283.48719620123,148.315647353878,-784.269808683529,6193.37151971767,490.466941100518,-2088.17471319152,275.506479619808,-587.340570123076,-8531.42009171099,965.377533014933,-2930.51566628,996.843784777735,528.385542241647,-2081.72236381319,9797.3180067302,-87.7696292147804,591.671599157843,-50.3813581595414,-448.217310924622,-9251.16640661124,1153.64471350585,-3204.07760225154,1074.27197731766,293.891255930659,-620.928142229437,10424.433333295,512.564028012599,-1039.35857999658,122.948191578811,393.062981992072,-6885.89422354224,4281.53156008454,-1310.71080727691,1309.47337040984,336.317662801851,-577.706240229409,10079.1884473807,305.028187734347,-747.323479366532,168.291413922398,-596.444569930852,-7742.55408894975,813.968293493364,-3248.80210616159,878.756952319582,381.395720102494,-664.768762663002,10875.832624735,578.943677096486,-779.054896172278,175.53925842956,362.215448662809,-7217.08536218049,4478.63757534029
"1",815.29411870809,59.0434162290768,-11578.1664351485,1496.14956064308,-4316.79851079622,2161.27187669668,604.841462957443,-401.106321628069,11676.1891126905,-2485.12678248012,2583.94495515094,741.931790159985,178.898015640197,-10140.7067373439,2831.07877517564,-4175.11198951597,2355.28429978474,718.155324642587,-201.702209333463,5677.80228788503,-1447.18241604592,1277.65356525644,923.481456229631,431.688689914386,-8850.06008498318,4884.16331435078,-4666.99314417886,2750.46860212037,523.170629730396,-253.232616012432,2975.94727697123,-1043.2476672931,550.040687415485,908.367048781769,647.267869828636,-1680.79281888042,11457.2511755656,-3323.22509488147,3096.86253655413,669.718510131308,-175.53925842956,-11905.8220398808,505.66973689603,-3459.34315025989,1841.57122325271,734.595557305174,-249.962247149445,11846.2482935659,-2588.36437253336,2775.92444624309,811.316643063915,281.428498912246,-8567.3057608562,4653.46972698867,-4378.84713084534,2545.67280061922,520.253814258002,-371.849778556476,-9162.33611722468,-377.064691067726,-2251.78154468856,1403.87212569824,639.754860278528,-254.293276184212
"1",95.8129688507771,-309.889546855004,3099.07224524534,431.423524871442,-3398.35519038255,1232.04517786991,-263.927606077879,8.48528137423856,-21.0364267402998,-408.265777787583,-13029.9450452722,898.644330540453,-2145.80391585823,2107.26659628356,-273.208382580952,28.9029896810001,74.157823676939,246.338324895863,-2103.46589733468,13351.5902423644,100.232386233193,-683.418704016798,86.620580695352,-101.823376490863,-5.30330085889899,291.858323934747,-86.7973573906487,13373.1569991906,397.394011026839,-2781.84646553552,617.215831628207,-250.846130625928,-1.85615530061467,35.1785623640307,-434.428728691485,-8443.91562753915,542.085736127137,-2880.3994731634,1736.21231285592,-322.529080568714,33.322407063416,-2.12132034355963,26.9584460327371,-7027.93429821309,7924.45730840998,-302.464925652546,762.968216900284,-129.046987566545,3.80069894887768,-31.112698372208,194.98469491219,-196.929238560453,9917.79132457486,404.995408924595,-3338.42789067699,1005.77100789021,-331.191138638249,-23.5113004744527,79.2843478405416,-268.258635112646,3286.19037721683,314.750905975662,-3168.72226319221,1172.29465485965
"1",246.868654981754,-89.1838427771538,10945.9245844201,-194.277588131004,-5161.87950266179,3191.70323358078,-154.679608384557,37.211494359942,156.712540380468,-118.440385848746,5016.74583582325,-80.6101730552665,-5147.47220199512,3907.20690779391,-217.435335214864,-30.8475333292636,45.1664456482909,-291.504770544154,-8799.06000839009,4269.42235645672,-1811.96112679053,1931.5505611587,549.421968981947,147.078210486803,232.903296053319,478.446125820348,234.93622804923,11750.0817713245,417.546554290656,-4484.38281793743,3793.27432767523,309.270828421466,579.120453791782,539.522474045335,120.119764454065,4327.84705425226,-73.0087751575111,-5418.29409918956,3911.00760674279,-439.732029550384,-126.130172094151,-340.11836175073,-433.63323356265,-6341.68716707155,6917.71402869564,-1544.76315184966,66.7332024744799,721.867635243816,-172.003724523628,-113.755803423385,2.9168154723941,-2391.7886873635,11009.1222529886,-570.900337460488,-2289.34659243909,1490.3159296983,-446.891485709898,-257.917198437792,-72.8319984622141,-428.153156008454,11639.2427833735,-561.266007566822,-4025.29374025207,2088.88181997271
"1",124.981123574723,194.631141521598,-168.821744008288,9322.31902646814,402.255370147498,353.818555636218,-258.62430521898,96.4316872843167,-187.471685362083,-7994.63765644275,376.887914372429,-2291.99824286854,445.035330409282,-78.2236876687618,-164.755880016466,-7077.69693793909,2057.32717986226,-1236.81814864292,1289.76276888426,-242.89117933758,130.461201128919,-63.1092802208994,-3185.78121428834,6373.50697222494,-337.908653059521,1676.10823645506,-408.707719525824,155.563491861041,-6.71751442127297,-3451.03464558094,6401.52607842946,-519.900260867407,1724.45666261869,-285.49436290407,105.447298744445,-107.391842392706,-5010.64703983552,5004.72502054308,-332.340187157675,1378.59305827082,-276.301974748642,2.82842712474695,-222.119917640223,-6310.30930365639,496.035407002362,-2611.61050796487,475.17575695736,-104.916968658553,-139.918754327289,-5592.94947414264,3980.12729460378,-694.025305734596,1689.8968186882,-335.522167673014,231.135529100352,-59.9272997055606,6257.01113002446,293.891255930658,-606.962783301002,-356.91214780391,179.339957378437,112.871919946903,-180.047064159625,9518.45276989976
"1",826.961380597665,-991.36370722354,-170.235957570662,-216.905005128974,5126.61255195011,1430.03507660214,572.137774327565,-219.203102167829,63.8163870020866,4355.07066532794,553.48783297377,2011.18846238983,-516.276338613827,66.7332024744807,938.507475329842,-2900.28685138427,2638.48056564995,-981.199047243986,-11.6672618895783,-281.516887259894,-4047.4792155118,2850.96615339651,-1775.36835086412,-204.97257819645,-621.016530577085,-4659.03819289051,2720.59334061524,-2714.05260288926,-430.628029742607,-867.531632168245,-6473.1206400246,2422.10589060687,-3316.33080376491,-559.7634056568,-1048.10902641376,-5053.51538844496,1815.49666069646,-3366.4469968815,-498.421892388871,-839.070584225485,2969.6717042882,1140.03290796801,-2262.21136971106,-209.30360723122,-476.58997051973,4321.39470487393,726.463829321531,-778.171012695792,-144.426560057349,-250.934518973577,4883.45620756959,1081.25465678188,216.993393476624,-140.183919370232,-136.38322042136,5697.33611271531,1749.11701161257,915.791669984225,-247.664150110589,-58.689862838482,5426.42582717321,1301.51841912149,1686.98000321581,-349.133973210858
"1",-922.685961100795,-6582.89896780381,1859.51405782532,-2943.331976689,-366.192924306983,-826.607827207073,2829.48778491797,476.059640433843,-389.704224781434,-226.539335022639,154.856385079851,2334.86659147798,-980.049998724553,1968.67366717099,-1293.74024452843,-376.711137677135,-1031.93395879412,-7486.58143416022,1385.1337959968,-2928.65951097938,-473.49637835204,-639.136141844986,3058.32521697947,538.992143959447,156.800928728118,-369.286516474673,191.007219268016,18.0312229202567,-2759.57260192815,2552.56709173579,-1888.32865915868,-131.610249648346,-747.235091018883,-4543.6030108618,1535.74754038953,-1430.65379503568,443.002398413367,376.092419243594,5022.1375250298,1780.05293328949,1435.51515415634,-89.6257845153955,448.30569927227,2.91681547239433,-3223.16948534358,2586.86177062334,-2006.68065665977,-321.380032049282,-1000.37931868367,-3139.64249681592,1506.57938566559,-2020.91118063115,418.960767853028,522.728687992156,5169.65767725485,2268.04500065585,1491.99530830362,-980.403552115147,-622.342355791809,-1300.54614729736,-3955.37855726225,2172.05525510978,-2354.6655813512,-192.774986220976
"1",-99.1717260614133,2370.66387227555,513.53629983673,126.925667222985,33.322407063416,415.77878733769,861.167671137566,-836.77248718663,543.765114732455,-248.194480196478,-80.1682313170247,-668.03913152599,-3092.17795412877,651.598898863403,-396.244962507411,-271.087062237393,-689.959441742773,886.269961869689,379.627953149527,-109.86671612686,-164.932656711762,79.6379012311348,2527.28802430837,1042.45217216427,292.035100630044,8.92722311248022,259.066246957221,1005.06390110903,-697.826004683473,566.392531730424,-205.679684977637,-70.2687363804131,-606.520841562761,-2495.82177254557,568.248687031039,-293.27253749712,-343.123565570772,-793.108643448361,-3832.87230742168,612.708025898143,-296.631294707757,-252.525509231246,-506.995562110754,1998.81409371907,366.281312654631,-75.3952605440156,0.70710678118655,53.563338674881,2653.32980805487,1297.36416678202,185.52714171382,112.783531599254,293.979644278307,1433.83577555102,-322.175527178121,395.714632421521,-105.182133701499,-56.7453191902204,-544.207056470696,-2423.43171582159,572.049385979917,-320.938090311044,-224.41801467908,-779.673614605817
"1",-265.165042944955,337.113157930687,4434.62017821143,1336.78536983317,3849.66609347486,-2378.97237695449,-250.050635497092,377.683409501265,2682.14440938822,-475.264145305008,3542.7817504399,-2897.98875434541,-249.608693758851,333.400847329457,1294.35896296197,-1803.12229202569,3447.23394663207,-3393.40544291424,-166.877200360025,413.65746699413,407.116729268154,-2415.74192957619,3396.76420012487,-4062.15168122141,-223.268966159652,408.089001092286,209.038442188273,-2786.35427126559,3375.37421999398,-4266.06359924609,-271.175450585041,257.475256699551,-215.137238176006,-3275.14183376079,3072.2905759079,-4688.73667770034,-251.553237407114,203.116422895835,-342.593235484882,-3570.00536151558,2679.58114730642,-4480.22856559796,-234.93622804923,120.384929497009,-243.156344380524,-3694.10260161382,2562.02464493416,-4575.06926262461,-294.244809321252,153.177006474536,-421.435641587182,-4258.90414308657,2483.8009572654,-4838.20137357365,-223.710907897894,48.6135912065752,-537.843095440017,-5341.83817847377,2360.58760064364,-4879.21356688247,-270.910285542096,-9.1923881554251,-600.156880532082,-6429.45679628633
"1",-3122.0532156339,697.118897902287,318.55160492454,-9975.33213889392,1673.72175106856,-5426.9561572591,289.206673505298,-133.554793296609,-3509.01740163824,1600.18264582516,-3682.78889311483,-45.519999038884,-499.83610595124,13411.5175420699,693.583363996355,56.833707537869,198.69700551342,-6941.57888256069,5478.39817559042,-3938.14282947083,554.636881493198,-184.024539803799,-3387.4834236218,1818.6786412118,-3619.94477793688,134.173511730147,-1398.03849475345,12273.0756243596,-870.448447640639,862.847049742884,175.00892834367,-9433.42317946208,1333.51500097018,-5278.55212155757,130.637977824215,-640.020025321473,13078.0283063928,233.256849443912,438.317815988011,206.386791758824,-9526.67288623105,1520.19119120343,-5291.81037370482,244.747334638194,-507.967833934886,13312.6993693991,577.794628577057,391.030049996161,164.402326625872,-10125.6807182437,1907.15537720777,-5269.71328679274,313.24830406564,-585.307638127164,6130.43901619207,1465.21363896617,-1541.49278298667,91.393551468361,-2790.42013525741,10027.5696523541,-2124.41393572733,919.945922323698,304.586245996105,-10043.5679432784
"1",2010.92329734689,-3802.82026922125,21.9203102167829,54.9775522372541,-825.282001992349,13680.7484490067,-41.7193000900061,10.6949900654467,-173.506326433649,-349.045584863209,-6606.23349158296,1534.86365691305,-2702.12017595674,-148.669200744472,342.946788875475,-7669.10337205399,6197.34899536184,-2930.3388895847,260.126907129001,-105.005357006203,-357.088924499206,13010.6763854848,1053.50071562031,-466.778863930769,-234.317509615692,-164.402326625872,-9104.97207960092,1633.23988784563,-3062.92141105718,-116.584230548132,264.36954781612,-9272.73316343743,4015.6594103584,-3363.08823967087,142.658793104386,-5.65685424949246,-516.541503656773,13685.0794780415,244.570557942897,91.2167747730645,-229.014208756793,-278.688460135148,-207.535840278251,1598.50326721984,-1995.63211320373,-240.062752212833,121.268812973493,-10901.2000805101,1502.77868671671,-3552.15091529062,-12.9930871043027,322.971022306955,-6820.48684628249,6759.67566310044,-2812.60561051714,295.92418792657,-41.1889700041164,-446.714709014601,13982.5062678781,507.791057239589,5.833630944789,-190.211724139181,-430.097699656717,-517.071833742662
"1",-58.33630944789,240.946635689316,-3770.02819224372,7719.92667195178,-2403.72111429602,3164.74478754804,-148.315647353878,321.026478658693,-1301.96036085973,10303.0761319739,-1595.76322844274,2271.75731125708,-69.8267946421717,196.929238560453,-481.628106335687,10814.6678881623,-817.503827399297,788.512449370648,242.891179337579,140.625861108474,-463.862048458375,7204.97615855267,-256.237819832475,-1107.85954942402,608.11183182043,91.5703281636578,-318.993546662782,-1365.51158281887,-88.3883476483185,-2627.43202219391,1286.13884663068,-195.249859955135,-205.060966544098,-8632.71313811596,435.135835472672,-3800.25700713945,2381.62402738394,-105.712463787389,219.73343225372,-9610.02309806342,1830.96462153492,-3654.15106847678,3355.66361846841,-268.965741893833,274.092266057435,-4744.06778332819,7058.16311310882,-2701.5014575232,3372.45740452159,-28.0191062045172,258.712693566628,-1437.01775606636,10304.4019571886,-1551.92260800917,2412.11800732261,-8.66205806953531,191.625937701555,-191.979491092148,10257.4677445873,-631.711520642531,280.367838740466,424.971175493115,44.4593388671037,-285.229197861123
"1",-6252.76848933734,1891.15708628342,-1425.26210582913,716.299169341972,28.5494362904069,-259.861742086056,-1796.40477760442,-166.346870274135,-128.163104090062,15.1144074478624,317.049003014518,-1165.75391713367,6877.9392722539,-489.84822266698,1234.60843995171,-41.0121933088194,210.806209141239,-7427.2728528882,396.510127550356,-1404.04890239354,276.655528139236,67.9706393415567,-265.518596335548,3964.04061533178,31.2894750675048,553.664609669067,-192.774986220983,297.161624793646,-4313.70491862853,3281.94773652971,-1259.35717729324,858.516020708117,261.894674081967,-280.367838740466,-5067.56913572104,153.00022977924,-684.567752536226,48.2600378159819,339.941585055433,-991.894037309429,7059.66571501884,-396.510127550357,1107.77116107637,-148.934365787417,-43.7522320859176,-6171.98153958678,380.688613321307,-964.405261190802,16.3518443149387,359.563798233359,-1090.71220998025,6761.62020674871,-390.322943214974,1344.03321434033,0.176776695296732,60.4576297914498,-6397.63699113293,234.140732920395,-1017.88021151803,-40.2166981799849,289.825391938836,-538.726978916501,7433.28326052828,-135.05739520663
"1",-1038.03275478185,1049.87679336673,331.279526985897,-230.870364057408,-7973.60122970245,-243.686674466414,-1578.79266569426,1129.16114120727,230.516810666814,-234.847839701582,-8359.76992057795,-98.8181726708198,-2092.24057718334,1158.15251923592,185.703918409117,-288.05762498587,-8695.82241833686,-38.8908729652604,-2333.01043617736,1062.16277368984,231.931024229187,-289.206673505298,-8672.92983629594,-89.8909495583399,-2081.89914050849,1050.14195840967,346.39393443376,-331.367915333546,-7723.63898255301,-303.702362519622,-1403.87212569824,970.945998916778,298.841003398964,-306.707566339665,-7877.43470746108,-330.572420204711,-1563.23631650816,1056.68269613565,235.731723178065,-336.4060511495,-6353.17765226583,-676.701189595526,-814.410235231605,988.446891751144,233.256849443912,-304.939799386698,-6172.24670462972,-638.252258368507,-718.420489685532,842.164176393178,336.140886106555,-353.111448855032,-5841.32073103442,-629.236646908379,-530.33008588991,873.895593198924,402.785700233387,-286.4666347282,-5290.04260675186,-682.888373930908,-391.825545124995,983.055202544597,389.173894695546,-191.891102744499
"1",-3512.55293554417,3426.9930150206,-55.5962706707922,43.7522320859175,350.990128511472,-454.934825345895,4790.7368308865,-1312.39018588223,2999.28180075039,-129.488929304786,132.847686515423,226.362558327343,-350.106245034989,-434.075175300891,-428.771874441993,-1445.14948405,436.108107296803,119.766211063472,77.6049692352235,-296.012576274218,-5140.57791087855,678.380568200844,-3620.91704976101,2394.44033779294,31.7314168057462,91.2167747730646,176.511530253692,-2712.63838932689,3232.7154268896,-2414.06255097087,4020.9627112173,-67.5286976033152,93.3380951166242,366.281312654631,-172.710831304814,4326.34445234224,-1104.50079221339,2027.62869505242,23.6880771697493,73.8926586339942,157.861588899897,-436.726825730341,-1733.29549738352,-242.891179337579,-2883.58145367874,1007.45038649553,85.0295904376823,59.8389113579117,-120.738482887603,-3835.17040446053,2079.60104346964,-3295.91309545814,3228.91472794072,-55.5962706707922,73.3623285481043,380.953778364252,-832.441458151863,4804.87896651024,-1389.55321337921,3245.26657225566,-102.972425010291,111.104152993936,269.407683632074,-327.655604732316
"1",218.495995386643,19.0918830920369,7861.61319323203,-1699.70792527716,3079.80358545801,424.440845407225,-114.286133509276,-17.6776695296636,-70.003571337468,-3218.57329126587,6062.55676519816,-3812.63137581021,6878.46960233979,9.63432989366683,-21.5667568261905,18.649941353796,-283.638207603454,-6696.3012178366,2612.93633317959,-5765.21836370921,6194.5205682371,-159.27580246227,14.8492424049174,122.417861492921,-402.785700233387,-8498.89317977641,460.591679595387,-6358.03901138649,4020.785934522,-195.780190041025,-0.176776695296464,240.769858994019,-383.517040446053,-3552.76963372416,-297.515178184239,-4716.22545381897,2077.65649982137,-167.495918793564,-3.53553390593279,369.816846560564,-201.878986028759,3104.72909949483,-855.245651845129,-888.214505517951,941.159125759294,-91.2167747730647,-8.22011633129371,351.432070249714,-7.95495128834762,7536.25568553857,-1468.13045443857,2284.83878670903,470.40278618435,-85.3831438282757,2.20970869120767,112.164813165717,-800.002934564929,8338.64510549,-2549.91544130634,5353.2402753204,98.4646192802264,-86.9741340859451,-21.8319218691348,-175.53925842956
"1",1121.73652000481,829.789807722413,-659.995791889993,49.7626397260034,-51.0000765930798,-6.18718433538237,-109.955104474508,354.172109026812,2542.04887836564,1275.70902160818,-1610.17052910942,136.913550507245,-68.4125810797983,-47.1993776442018,240.593082298723,221.677975901982,2250.72088451678,1041.30312364484,-2287.93237887672,171.738559480683,-143.100734842627,-72.0365033333795,466.602087235473,-186.499413537952,-841.810623002584,683.683869059743,-1895.13456192759,75.4836488916639,-159.187414114622,-111.192541341585,237.941431869273,-437.080379120935,-1786.77044771076,522.551911296858,-1301.96036085973,-24.2184072556392,-177.13024868723,-70.7990664663033,294.598362711845,-437.875874249769,-1444.44237726882,686.512296184489,-1151.1698397717,-25.9861742086049,-83.3502118323647,-43.0451253047316,86.5321923477037,-602.808530961531,-1366.39546629535,848.793302466801,553.841386364363,-421.258864891885,19.0034947443883,18.3847763108505,-1.41421356237313,-505.316183505436,-512.564028012598,1518.77697764105,1263.95337137095,-919.592368933104,126.218560441798,-15.0260191002141,32.7920769775261,-188.885898924456
"1",2993.18300476266,-3476.31371300837,87.2392991288835,5831.95156618371,336.406051149499,-783.651090249989,62.2253967444194,17635.4198994878,-5023.72851528747,-159.717744200509,-7681.919682463,9312.15436648858,-6862.38292306779,180.135452507279,-13158.8152561434,2978.59892740068,-4085.66298169587,49.0555329448247,-2387.10410493814,1433.48222216043,-1515.50660877807,-116.230677157539,17047.5489992788,-2551.77159660695,-175.804423472514,-1690.33876042644,16428.211847307,-5771.2287713493,468.281465840797,-10548.2654083503,6616.57492825781,-5855.63964335344,458.381970904172,-12275.5504980938,3331.18004616982,-3583.26361366282,211.336539227122,-3038.61461545389,1611.93829606238,-1590.01798584559,141.509744584958,14301.6765912362,-1236.19943020938,-290.002168634134,83.4386001800127,18273.230216118,-4258.72736639128,131.168307910105,-2953.58502501621,15040.868342619,-5992.81835890364,438.229427640361,-10393.9393533564,7327.74757343619,-5741.26512149652,799.384216131392,-13034.010909264,3626.30873896756,-4337.03944240769,410.740651521735,-10803.442568011,2875.4497256951,-2701.23629248025,157.331258814008
"1",5987.95699978298,-1672.30753750618,-403.050865276332,100.497551276138,-3485.85965455438,8487.22591788683,-1158.68284932181,-503.901969943064,8.30850467894158,-1869.41355276193,11165.1276865879,-151.586016216866,-607.493113386893,46.2271058200703,-892.457146205071,12300.4760121306,210.099102360053,-616.155171456428,89.537396167748,-473.142824961447,12658.8023734969,597.770395145577,-624.198511092425,216.905005128973,-131.96380303894,12062.9765219995,740.164023207018,-614.210627808164,149.641472568602,-136.118055378411,11555.7157948458,792.224759971878,-768.094741063887,114.728075247517,-60.9879598773397,11910.2414572633,1209.50614921959,-984.99974619286,109.071220998025,-120.119764454065,10880.340430465,1332.71950584134,-1138.61869440564,84.3224836564956,-213.634636265986,8064.37606273727,1452.92765864306,-1394.76812589046,30.4055915910217,-278.158130049258,1484.48229875351,1658.96089701129,-1815.40827234881,-33.587572106361,-166.788812012377,-5194.49480294402,1612.99895623416,-2431.56344380524,-181.196112679053,-59.2201929243733,-10494.5252929801,1554.83942348157,-2624.51520672152,-205.414519934692
"1",9436.95871336801,-1018.76409499452,-89.0954544295048,-95.9013571984239,-274.092266057436,-9927.16048942558,997.904444949515,-1387.87383477389,-231.75424753389,72.390056723972,-47.8180960777404,9985.67357556877,-15.3795724908073,-284.433702732289,-224.94834476497,30.7591449816168,-6598.19015194697,6227.57781025757,-1354.19787431989,-137.267103897839,-153.000229779238,-348.338478082025,-8355.79244493378,826.342662164127,-1470.60532817272,-281.693663955192,70.8874548139506,-182.875491284372,12255.6631198729,-90.9516097301176,-264.634712859066,-179.693510769031,-44.1057854765118,-8678.85185558838,3431.58920909831,-1643.13938278224,-211.424927574777,-136.648385464302,-382.014438536032,-433.191291824409,535.810163444105,-924.542116401409,-249.520305411203,202.055762724056,-2037.26302494609,11337.6617411974,-683.772257407392,-121.092036278196,-150.34857934979,-249.608693758851,-11343.4953721422,1054.73815248738,-1580.20687925664,-200.464772466386,156.270598642227,-120.119764454065,11187.4015501953,-49.6742513783543,-190.830442572719,-170.854676004199,-53.2981736319361,-9292.70893000595,2580.85136298325,-1659.13767370658
"1",-3299.09507597348,-90.8632213824712,92.3658232924926,-575.761696581146,3012.36327620234,3007.50191708168,-4288.33746285346,-60.6344064867463,-222.031529292576,-920.387864061939,-6963.85274616806,2629.46495418982,-4870.72828550823,123.036579926459,-244.92411133349,-19.5338248302783,-4183.50888254256,2423.60849251689,-1906.80182381717,-43.4870670429727,-339.234478274246,588.931560380746,1589.22249071676,7150.61732474896,1021.68091046691,-850.119127681527,-344.80294417609,560.735677480932,1928.89891072925,7539.43766605391,1877.28011570263,-1546.61930715027,-256.061043137178,362.303837010457,485.782358675158,6595.89205490811,2898.43069608366,-2973.82595662767,-145.752385272077,46.5806592106638,-715.503674213137,1532.2120064836,2969.93686933115,-4640.56502823201,-20.240931611465,-122.417861492921,-833.413729975994,-6823.93399184077,2601.53423633296,-4767.93263719324,137.267103897839,-161.308734458181,-809.902429501541,-5031.77185492347,2684.97283651297,-4747.33815219118,168.644967312992,-157.331258814007,-686.512296184489,-317.314168057463,2897.63520095482,-4715.96028877603,80.0798429693768,-130.107647738325
"1",-376.180807591243,165.904928535893,1265.63274997627,6285.03023622898,2211.12290477033,-1689.80843034055,-165.5513751453,-663.089384057685,-2094.62706256985,1747.43763300725,-3242.88008686915,35.0017856687345,17.5008928343669,-3874.32644246874,1347.21519485567,-131.079919562456,-160.424850981698,337.99704140717,1703.68540092134,7063.64319066301,2243.47304000962,-1295.06606974316,-79.7262895787831,-547.742590376629,3238.90261122498,1899.28881426707,-3010.59550924937,-50.4697465071897,-363.983215615775,-6946.44024168134,1225.76960518688,-2026.65642322829,39.4212030511501,260.568848867243,145.929161967373,5112.02847458814,1848.37712602163,-768.094741063887,91.2167747730642,-95.7245805031289,4953.01783716882,2284.48523331844,-2536.83396585439,-30.759144981615,-580.446279006507,-3018.10851879948,1688.57099347347,-3230.68249489368,-61.8718433538229,-156.62415203282,-4850.13380050617,1142.33100500687,-980.491940462796,-96.1665222413704,158.922249071676,1730.55545860643,6371.47404022903,2383.12662929396,-1549.97806436091,-190.30011248683,-519.458319129167,-6722.90611047874,1644.73037303991,-3057.97166358887
"1",2118.22675139195,-797.616449178425,11.5788735419298,-688.810393223345,-3101.1935655889,1261.92043937504,-2971.96980132706,-33.8527371493058,442.472068327482,1580.82559769017,8120.50266349395,2877.8362110816,-3055.32001315942,-139.034870850805,-316.872226319222,-5252.56594734897,1576.31779196011,1856.42046565763,-709.316489877755,-122.329473145273,-759.167517951407,-7552.43075315821,1129.24952955492,-2248.15762243498,-2.03293199591143,372.380108642366,1620.86551917486,8249.3728743652,2647.49617711008,-2812.60561051714,-139.034870850805,-588.578006990152,-6758.61500292866,1043.6012206837,415.160068904151,-196.752461865156,266.225703116734,-305.735294515533,5621.85246382364,2133.78310057805,-4204.19175589226,23.8648538650458,-149.464695873306,-4450.61846913577,2217.48686580101,2216.51459397688,-814.233458536309,203.735141329374,-512.298862969654,3384.47821980176,1588.33860724028,-3719.73522243183,14.2305239713792,-50.7349115501351,-3882.63494714768,2812.42883382184,2476.64150110588,-1005.50584284727,55.773047366089,-563.740881300974,1393.35391232809,1688.12905173523,-3978.18275095551,-78.046910973465
"1",107.657007435654,173.506326433647,6793.2632352068,2750.73376716332,-3672.27067974468,112.253201513361,74.4229887198828,6566.01679340298,2612.0524497031,-3552.06252694297,167.495918793564,248.813198630015,7174.39379026635,2415.74192957619,-3244.20591208388,197.017626908104,648.858860086306,7517.34057914184,2464.17874408747,-3174.20234074641,72.0365033333753,815.294118708089,7488.79114285142,2636.09408026345,-3238.37228113909,39.9515331370407,376.887914372431,7033.67954081023,2730.05089381361,-3573.45250707386,54.0052804131241,172.092112871276,6833.1263799962,2554.95357712229,-3426.72784997765,154.326054993962,206.828733497065,6900.47830090422,2356.61012499947,-3302.27705648882,115.611958724,122.064308102332,6856.37251542771,2384.98278459458,-3569.82858482028,-48.348426163631,-133.024463210718,6291.6593623026,2450.30177350668,-3935.57956738902,-95.6361921554816,-432.572573390875,4980.59500163509,2329.03296053319,-4107.494903565,-106.684735611521,-569.486123898116,3034.99069320031,1967.08267691333,-3695.95875691443,-114.993240290465,-557.200143574998,2386.48538650459,1958.86256058203
"1",222.119917640223,-442.383679979835,3380.23557911464,942.926892712261,-3324.3741434009,294.775139407142,79.9030662740807,-166.877200360025,-6757.02401267099,2234.10387515889,-1480.15126971874,1114.13512210705,5.30330085889921,521.40286277743,-118.263609153449,9100.72943891381,642.406510707975,-1508.17037592325,-92.6309883354373,35.2669507116784,-597.063288364392,-4338.45365597006,900.854039231659,-3529.435109945,609.702822078099,87.3276874765387,-288.853120114704,-6993.1976775873,2201.31179818137,-1650.74078067999,1207.38482887603,16.3518443149381,495.328300221175,-206.563568454119,8939.95103454151,369.905234908211,-795.053187096626,-68.2358043845021,128.605045828305,-465.541427063694,171.91533617598,749.886741448334,-3503.53732408404,236.262053263957,-7.68978624540363,-289.029896810001,-6597.04110342754,1987.05844348184,-1506.31422062264,1165.75391713367,-36.6811642740518,540.671522564765,-118.705550891692,8955.15383033703,508.409775673128,-1272.52704109284,-54.1820571084188,209.480383926515,-388.201622871415,-740.429188249963,879.817612491362,-3650.79231126614,440.881078069812,56.0382124090337
"1",2089.058596668,-27.4003877709787,2.56326208180123,-5537.97192190539,154.767996732206,-4912.62436229354,3528.37444977322,156.09382194693,-102.795648314994,-4690.94638639155,2244.5337001814,-3221.31333004296,4201.71688215811,179.870287464328,-72.1248916810277,-170.32434591831,7102.35728693298,-1306.91010832804,1472.19631843039,507.702668891941,25.7210091656605,194.365976478652,4229.11726992909,-296.98484809835,-3505.21670268936,1556.34202539159,68.7661344703917,-64.0815520450309,-5769.72616943928,24.3067956032876,-4679.01395945903,3110.65111878727,16.1750676196425,-241.388577427558,-3094.21088612468,3101.63550732714,-2055.29424786635,3356.72427864019,95.0174737219423,-39.2444263558533,97.1387940655018,5169.12734716896,-350.371410077934,-2555.30713051288,1262.36238111328,35.0901740163824,-117.379725676967,-6055.04375564805,992.777920785912,-3915.07347073462,4317.6823942727,59.0434162290767,1.67937860531808,114.993240290462,7539.26088935861,-770.392838102743,-303.79075086727,722.928295415596,100.497551276138,30.0520382004283,-5549.10885370908,38.3605428793702,-4992.08548682937,3125.94230293043
"1",2210.41579798915,20.2409316114653,22.5390286503215,55.7730473660903,-6967.65344511694,689.340723309235,-5583.40353259662,2493.96561724495,117.644890719911,188.355568838567,-1786.8588360584,8759.10847525306,-603.869191133311,1870.65098962901,78.3120760164103,44.6361155624011,-430.804806437903,8103.09015900724,320.849701963396,-4007.88123576535,439.113311116845,93.3380951166243,-124.274016793536,-5515.78644664566,617.834550061746,-6059.99350311636,1803.47584541629,157.949977247545,245.45444141938,-1947.4604637354,8800.20905690952,-600.687210617972,2080.57331529377,69.6500179468748,252.967450969488,-63.5512219591418,-4632.61007694366,554.54849314555,-5689.6463264699,1775.63351590707,105.358910396794,277.892965006312,-1314.59989457344,7938.51105568607,-367.960691259949,1380.62599026673,-160.336462634049,131.963803038941,117.644890719913,-7078.40404472028,849.588797595635,-3855.67650111495,2760.81003879522,-58.4246977955384,16.2634559672894,-361.066400143381,-1542.55344315845,481.539717988038,-5487.59056374585,1081.69659852012,134.173511730147,26.25133925155,-160.424850981697,-3885.99370435832
"1",598.65427862206,6198.05610214303,2355.01913474179,-2692.57423441072,137.001938854894,-313.248304065641,-135.499336944872,-395.095913987983,-4372.21800477172,1310.71080727691,1918.99941579264,-1298.2480502585,247.04543167705,126.483725484744,87.0625224335938,466.425310540176,1809.39786470873,7911.19905626274,2658.10277882788,-3368.74509392036,253.497781055377,-202.232539419352,-15.4679608384557,211.071374184184,1521.16346302756,7062.22897710064,2499.71085984209,-2864.57795893435,54.5356104990124,-179.693510769031,-51.7955717219146,-497.979950650626,-5985.12857265823,1051.1142302338,-1656.75118832008,-241.565354122854,-318.286439881595,-111.988036470419,148.492424049175,-622.519132487106,-6992.84412419671,1166.63780061015,11.5788735419295,-514.862125051455,-107.038289002114,-32.9688536728226,190.476889182126,-581.153385787693,-5766.1022471857,952.384445910631,304.586245996105,-693.848529039299,-146.459492053264,-101.558211447918,-3.18198051533952,-499.394164212999,-6792.02579833973,1168.49395591077,-1301.43003077384,-292.74220741123,-187.64846205738,-74.5997654151812,112.695143251606,-449.896689529941
"1",6659.5316652149,-699.151829898198,780.292333039353,-232.019412576835,-66.0260956932944,-22.0970869120822,-5592.3307557091,32.438523586932,-1472.81503686393,355.232769198592,13.4350288425452,76.1907556728527,-6294.92973116559,270.910285542096,-2002.79156936325,742.108566855281,-84.852813742385,76.1023673252022,-6182.94169469517,251.995179145356,-2020.20407384997,603.604026090366,-93.4264834642727,43.5754553906211,-1837.68213595619,-107.038289002114,-103.679531791478,227.246441803827,-166.346870274135,-473.496378352041,6732.01011028652,-1550.42000609915,1635.71476157978,5.83363094478841,273.650324319194,-5292.16392709541,254.204887836564,-1175.74180041793,511.149814450225,-60.4576297914492,-334.726672544181,6048.59140626972,-1087.35345276962,1164.3397035713,-149.641472568604,82.7314933988256,1282.42653602945,-122.948191578809,363.806438920477,235.55494648277,253.93972279362,-4947.89131300522,410.47548647879,-1147.89947090871,488.434009104607,-260.215295476651,-313.867022499179,6300.58658541508,-1123.15073356718,1054.11943405384,-173.417938086002,8.39689302658992,-5141.90373609327,1380.80276696203
"1",1680.52765383748,-1971.41370594809,34.2062905398996,-214.783684785414,-193.305316306872,1593.90707314213,5036.01449561059,1984.2300163571,-1775.98706929766,-422.58469010661,86.9741340859453,-409.768379697604,-5638.11591979093,1044.92704589842,-1143.74521856924,73.8926586339944,-307.945003206741,-475.971252086195,-1607.78404372291,1762.64042880277,1296.56867165318,-859.665069227544,-442.914010065724,186.05747179971,355.586322589186,3472.68979075478,1638.18963531393,-1934.20221158815,-115.258405333407,-6.1871843353825,-489.759834319332,-8871.71523015701,986.237183059937,-787.628565894165,74.2462120245876,-379.097623063638,-324.120070826384,-697.295674597583,2615.67637195669,1695.55367293769,-1276.41612838937,-476.678358867381,167.761083836509,-271.263838932689,1230.98451769813,1397.15461127697,-1785.00268075779,-13.3466404948959,-222.296694335521,-438.582981030955,-3290.167852861,763.586935333823,649.477578519844,-391.03004999616,-458.558747599476,175.716035124857,884.06025317848,4000.01467282465,1777.40128286004,-2025.15382131827,-201.790597681111,-82.9966584417715,-411.712923345867,-5428.10520577853
"1",164.932656711763,6206.71816021256,5418.64765258016,-6515.1934935052,-61.9602317014684,-610.58670555458,-3942.65063520089,1897.07910557586,1713.319730815,-926.575048397321,103.060813357938,39.6863680940941,2879.69236638221,4195.70647451802,-7100.76629667531,129.135375914193,-625.612724654797,-1887.44477568219,3420.62905398992,3853.73195746668,-1950.55405590309,89.0954544295046,-197.194403603397,-1251.66739104784,3329.76583260745,-6713.89049901862,-70.0919596851164,-511.85692123141,1124.21139373896,6434.76009714523,5516.2283883839,-4308.22484107433,6.01040764008394,-560.558900785633,-5191.22443408104,2031.25261730601,-2902.49656007548,-342.946788875473,-165.728151840597,165.021045059411,6268.76678026169,5444.89899183171,-6557.70828872404,25.0139023844748,-585.749579865407,-4870.55150881294,1730.02512852054,-1426.67631939151,-529.976532499317,-210.187490707702,-73.9810469816427,5001.63142837539,4683.96370692734,-7034.74020098201,-17.9428345726089,-609.967987121043,754.394547178398,5911.14752567659,5089.31266924252,-2975.68211192829,131.698637995996,-145.66399692443,-3555.9516142395,2002.43801597265
"1",-309.270828421466,2.74003877709776,-433.544845215002,11134.9872600399,2226.85603065173,-4223.19525063665,159.364190809918,-254.470052879509,96.7852406749085,-398.101117808027,13492.4812685158,2367.6586684555,-3316.5075804602,147.962093963285,-224.948344764971,229.809703885628,-6194.96250997534,7796.02903927698,1571.7215978824,-1233.19422638934,-79.1075711452454,-153.795724908074,-298.133896617777,-10256.8490261538,1643.05099443459,-2857.06494938424,-33.4107954110645,-287.262129857034,-45.5199990388836,-433.456456867354,8679.02863228368,2126.97719780913,-4391.48666455905,188.797510576808,-294.86352775479,126.218560441798,-703.394470585318,13493.8070937305,2406.01921133488,-2987.08420877492,90.2445029489324,-224.94834476497,164.755880016466,-8283.7559416004,5697.33611271531,1125.09527721544,-907.21800026234,-116.584230548132,-161.131957762884,-400.841156585123,-8454.34545256165,1634.74248975565,-3247.65305764216,7.95495128834876,-317.844498143353,-15.291184143159,-367.872302912301,10988.2626029436,2281.83358288899,-4204.10336754462,182.875491284371,-265.518596335549,182.433549546129,-1081.07788008658
"1",405.967680748727,1169.55461608255,1035.82304609064,-413.745855341778,-399.692108065695,-581.506939178287,205.944850020582,2353.87008622237,-5222.33713245324,-120.473317844658,300.255216961338,2398.24103674182,2426.26014294634,3392.963501176,-4058.96970070608,-419.40270959127,302.376537304897,2216.86814736747,2054.58714108516,3378.64458885697,-2991.50362615734,-430.893194785552,-178.986403987845,1386.98995129741,911.372252601811,2455.69346271323,-939.037805415735,-527.943600503406,-665.122316053596,-2586.33144053744,1745.22792431605,-3161.3860303374,-53.4749503272332,-199.315723946958,-140.449084413178,270.291567108558,2828.25034805089,-5839.72974077675,-203.293199591132,299.548110180151,1931.63894950635,2052.02387900336,3421.15938407581,-4852.34350919738,-274.88776118627,169.882404180068,1263.15787624212,1003.56129919901,3640.18570954834,-2523.31054866419,-556.493036793813,-744.141498851193,-3211.59061180165,1485.36618222999,-1638.71996539982,-55.6846590184406,85.1179787853309,2547.26379087689,2019.49696706878,3764.37133799423,-4281.0896183463,-364.867099092259,-786.125963984144,-2994.95077171562
"1",-2451.89276376435,749.798353100685,-790.810546409504,-68.2358043845016,-282.489159084025,641.876180622089,1008.59943501496,1785.35623414838,-2884.64211385052,223.88768459319,-562.326667738602,-654.780879378742,501.692261251855,190.565277529775,-188.797510576808,-145.310443533835,1403.6069606553,1453.81154211954,2057.41556820991,-2384.09890111809,197.901510384586,-393.239758687369,-2217.04492406277,1021.68091046691,-2150.57688663124,251.730014102411,-386.964186004338,678.02701481025,981.28743559163,1753.71320569029,-1396.62428119108,111.546094732178,-148.492424049175,365.574205873444,1528.94163762061,-2992.21073293852,235.99688822101,-630.297307080159,-3235.36707731905,801.682313170248,-1460.79422158376,29.8752615051316,-525.026785031012,-2052.4658207416,833.0601765854,-799.649381174336,-45.7851640818289,-636.130938024947,45.4316106912365,509.38204749726,560.912454176229,-429.832534613772,-429.567369570828,816.708332270462,614.652569546405,1483.59841527702,-980.138387072202,-10.5182133701498,1879.48982439384,1765.38046757986,1885.14667864333,-2275.9999519442,245.896383157622,-408.972884568769
"1",90.686444687173,742.462120245875,82.0243866176365,-16.0866792719934,417.458165943009,236.262053263953,3364.76761827618,996.225066344198,-1745.05114762075,-53.563338674883,-30.3172032433725,28.8146013333514,-699.947325027034,1125.97916069193,460.414902900092,-1347.39197155097,460.768456290684,65.5841539550526,28.1958828998128,175.804423472504,-1512.41301661038,457.763252470641,641.787792274441,-102.265318229104,-226.981276760881,-266.667644854977,-106.507958916224,-415.690398990041,2479.64670492592,717.359829513752,-2112.21634375186,490.99727118641,-263.308887644339,-213.546247918336,-48.2600378159819,-2993.4481698056,519.811872519763,184.289704846743,611.205423988121,-49.5858630307074,7.15945615951697,299.194556789559,243.509897771118,3444.22874281202,680.855441934996,-2144.6548673388,309.535993464412,116.407453852834,53.2981736319352,-600.24526887973,1895.04617357995,631.181190556641,-1785.26784580073,680.590276892052,-164.225549930577,-49.674251378356,140.625861108475,-2021.88345245528,192.774986220979,448.305699272271,287.615683247628,-173.683103128945,-15.9982909243454,21.2132034355973
"1",240.504693951075,-134.438676773093,1805.77394245514,-1874.62846527319,-1.06066017177944,-511.680144536115,25.9861742086056,1331.04012723603,3027.38929530255,-2826.04063935968,-59.3085812720216,73.4507168957526,-1347.12680650802,2042.56632580499,-3533.85452732742,24.5719606462325,-376.976302720078,-67.2635325603703,1411.473523596,3521.03821691841,-3296.53181389168,-80.521784707618,216.993393476622,583.716647869495,2275.20445681536,-1418.45620306021,-96.608463979612,-463.59688341543,-533.158513014657,-5873.05214784016,2861.66114346196,-5621.2337453901,284.964032818179,-218.319218691346,-164.137161582927,1414.65550411134,3455.63083965866,-3445.20101463615,-67.9706393415568,238.206596912218,3456.42633478749,4969.19290478846,1982.81580279473,-868.32712729708,-376.092419243595,316.783837971573,-1075.50941418474,1685.21223626284,-2569.80281952721,257.475256699551,-427.622825922564,-690.489771828663,-923.481456229631,2669.23971063157,-3545.521789217,51.6187950266182,350.548186773231,1894.33906679876,3471.01041214946,415.778787337689,-320.938090311044,-463.862048458375,-490.643717795815,-3676.5133204318
"1",-366.104535959335,-6624.97182128441,885.474466740854,-3203.19371877506,117.379725676967,-202.939646200539,-213.281082875392,-6726.44164438468,2101.43296533877,-1706.77899308903,-378.125351239506,-677.938626462602,-213.723024613634,-1618.9209755266,7846.85233917476,546.328376814256,11.1369318036883,127.809550699469,551.985231063748,-594.588414630238,9778.93323041935,990.391435399407,-653.985384249907,160.778404372291,478.976455906237,87.3276874765385,9630.44080637018,1218.69853737501,-2586.41982888509,130.991531214808,135.941278683114,-351.874011987956,-6545.68747344387,949.467630438237,-3045.68568326576,182.875491284371,-166.346870274135,-176.334753558395,-7864.79517374737,2173.91141041039,-947.081145051732,108.187337521542,-245.896383157621,239.709198822239,-483.130708245708,9592.52220522905,579.297230487078,-959.367125374848,-207.977782016493,209.303607231218,19.4454364826295,8190.24106978848,644.439442703888,-3048.3373336952,-1354.55142771048,-1458.14257115431,-1715.52943950621,-1031.13846366528,442.737233370426,-3211.06028171576,898.290777149861,1035.2043276571,1077.71912287595,-7110.48901491662
"1",-2479.46992823062,2762.31264070525,-4862.15461578634,-333.666012372403,-168.556578965343,-194.365976478653,128.516657480656,98.5530076278739,-18460.1715713942,4317.94755931564,-1018.23376490863,-1209.85970261018,54.182057108421,-323.412964045196,28.1074945521646,-5.83363094479071,-19795.807892708,6778.23721610659,716.652722732566,-1817.97153443062,-274.799372838623,-711.79136361191,-746.086042499455,-1135.6134905856,-5388.50722603208,16983.9977773197,3563.55301213725,-4722.94296824025,198.078287079882,-219.910208949017,-45.7851640818305,-318.198051533949,299.990051918393,17554.8097264325,4188.01668827262,-5962.14760226967,331.633080376489,-29.6100964621868,168.114637227103,448.128922576975,249.873858801798,-10485.3329048247,3205.66859250921,-2765.49462122059,-290.886052110616,12.0208152801703,-43.3986786953235,18.915106396738,-212.927529484802,-8261.30530129773,15165.7610778461,3520.59627518017,-3418.68451034166,135.145783554279,-327.920769775267,-88.741901038913,-490.466941100519,-3706.38858193694,18145.2438887233,4101.57288427257,-4942.41123545102,37.2998827075883,-533.688843100545,-262.866945906101
"1",-377.418244458315,-41.1005816564676,-974.03959108447,-14628.7134775349,3134.42758430466,-522.905464687452,263.485664339637,-495.770241959419,46.9342126012583,-445.123718756933,-16220.6760070288,881.408602749033,-1475.90862903162,395.891409116819,-423.910515321336,305.116576081996,82.5547167035309,-9732.35257120869,713.293965521929,-2050.96321883158,489.141115885795,-336.759604540094,286.113081337608,79.1959594928924,-7468.99215297821,691.020101914552,-2052.81937413219,479.241620949183,-151.232462826272,436.196495644451,297.780343227184,938.153921939251,672.900490646647,-2124.85587746557,460.326514552443,-145.929161967375,337.466711321281,460.326514552441,5197.58839511171,543.58833803716,-2115.39832426721,367.165196131115,-219.379878863125,287.615683247628,415.513622294746,9271.67250326565,611.29381233577,-2266.27723370288,291.416382196506,-197.724733689288,414.187797080022,403.227641971635,13965.447316782,677.938626462602,-2179.56826465989,231.223917448001,-158.480307333435,294.598362711844,332.605352200624,16105.9479317813,688.810393223347,-1990.77075408308,94.752308678999,-49.6742513783541
"1",1740.89689528128,-3589.18563295526,443.179175108668,-345.244885914332,-17.5008928343669,-6765.42090569758,2075.71195617311,2370.22193053731,-1825.39615563307,-24.2184072556397,-205.591296629988,-7502.75650177986,1388.31577651214,1772.00959365349,-1273.49931291697,-82.466328355881,-545.974823423663,-6314.90549773411,1192.53558647111,-1481.56548328111,-8.4852813742385,-400.841156585124,75.925590629905,-2904.79465711434,6104.36445363581,2944.92296694667,-3027.74284869315,166.170093578839,-194.100811435707,-444.593388671041,-9279.36228951106,1029.54747340761,-345.33327426198,-145.840773619725,-286.113081337607,8.22011633129347,-5.2149125112503,4905.73007117697,1468.57239617681,-3041.17787753569,357.000536151558,-336.759604540093,3.80069894887793,-253.939722793619,7774.55067079844,2634.85664339637,-3257.64094092642,434.605505386781,-225.213509807915,23.3345237791562,-376.269195938891,8195.89792403797,2995.48110180151,-3621.35899149925,412.508418474702,-253.497781055377,54.0052804131224,8.9272231124801,7408.88807657735,2041.94760737145,-3817.40434658322,365.485817525796,-376.092419243595,-57.3640376237589
"1",-2658.19116717553,-183.936151456149,-231.135529100352,-4305.39641394959,4015.04069192486,4997.30039934063,-2962.86580151928,-138.150987374322,-550.040687415485,-8020.80060734665,427.446049227268,2703.53438951911,-958.394853550717,-555.078823231439,-274.799372838622,1924.65627004213,1476.52734746516,-3492.04683888976,474.557038523822,-266.402479812032,774.989032180455,8600.18622618138,3746.69366846457,-5052.27795157788,541.643794388895,-186.05747179971,54.8007755419572,8365.3383864798,4586.11780608065,-4028.47572076741,223.88768459319,-298.752615051315,-6272.47909086291,1075.42102583709,3850.90353034194,-1642.3438876534,-499.040610822405,-385.638360789614,-5792.17680974195,947.965028528214,-1675.75468306447,-96.6084639796118,-482.865543202762,-129.488929304786,6965.44373642573,2458.34511314268,-5138.89853227323,404.641855534002,-266.314091464383,250.315800540038,8019.56317047958,2870.49997822679,-4949.48230326288,431.511913219091,-428.771874441993,-3668.29320410051,3389.42796727006,4394.22670333615,-2681.26052591174,-209.303607231218,-507.172338806051,-7940.45559933433,590.080608900173,3180.74307847239
"1",1082.66887034425,-787.716954241813,-465.276262020748,39.9515331370397,-3429.3795004071,1117.05193757945,-1522.31251154699,-209.391995578866,139.653589284343,-1358.88245674525,1331.30529227897,-1455.9328624631,-321.380032049286,189.504617357995,950.086348871775,1564.82730676583,-1422.43367870439,-159.894520895808,117.468114024615,3407.72435523327,3627.28101079169,-1201.37442123594,439.90880624568,-31.2894750675052,3818.37661840735,4417.82639215825,-1059.77628830334,194.631141521597,-184.112928151448,3293.17305668105,3551.53219685708,-1143.1265001357,173.506326433649,329.511760032931,3325.61158026798,3756.59316340118,-1288.96727375543,122.683026535866,11.136931803688,4107.6716802603,4211.08604700883,-1227.89092553044,258.005586785441,-26.0745625562539,3361.67402610849,4070.01824416212,-1139.41418953447,142.658793104386,-179.693510769032,2790.24335856211,3059.65104219419,-1292.7679727043,262.425004167858,137.443880593135,3803.52737600244,4083.18810796172,-1099.02071465919,269.67284867502,-185.792306756765,4160.08597041575,4556.15415622787,-769.155401235667,343.74228400431,-412.861971865295
"1",1252.55127452432,-463.950436806019,91.0399980777744,-248.371256891776,-439.643641202736,-7589.81902421345,2018.87824863524,-2852.99908539242,510.884649407274,278.865236830444,5612.66007566822,2969.22976254996,1184.58063518276,-640.285190364417,-234.936228049231,-404.111525448112,-5578.80733851892,1497.91732759605,-2393.20290092587,498.156727345922,-75.6604255869596,-499.128999170056,-6323.03722571775,1887.53316402984,-2763.99201931056,462.35944654835,46.3154941677235,-350.901740163825,-4198.53490164277,2498.11986958442,-2494.67272402614,212.573976094207,282.931100822269,5890.19948728394,2678.16693374405,1771.12571017701,-1131.45923824612,-229.36776214739,-56.1266007566791,3815.01786119672,1228.77480900692,-641.257462188546,-3.8006989488783,-290.974440458261,-534.926279967622,-7733.71525418491,1702.53635240191,-2901.17073486076,450.780573006427,181.284501026697,3371.83868608805,205.326131587041,2718.82557366228,-1759.01650654919,-64.9654355215135,-436.2848839921,-1199.60665428297,1436.75259102341,-2323.72965967429,362.834167096344,223.092189464354,3539.8649349675,609.526045382803,2481.85641361713
"1",-842.694506479068,-3482.14734395315,2415.91870627149,-4334.38779197824,-115.170016985759,-459.265854380662,3816.25529806379,617.039054932911,-898.997883931046,-117.821667415208,383.69381714135,1905.65277529774,-1453.28121203365,2729.43217538007,-1161.24611140361,-187.913627100325,-726.37544097388,-2354.4888046559,2470.18915172755,-3531.37965359326,-236.085276568658,-533.51206640525,2791.39240708154,1133.66894693733,-2900.64040477486,-137.70904563608,11.932426932523,3715.8461351353,511.238202797874,1060.21823004158,-294.421586016548,169.79401583242,116.67261889578,-2638.48056564995,3572.48023524973,-2421.04523043509,-98.9065610184683,-901.030815926957,-3421.77810250935,2317.18892194832,-4198.44651329512,-127.809550699468,-475.617698695601,3810.5984438143,815.647672098682,-1583.30047142433,-7.42462120245878,486.312688761048,4008.14640080829,802.301031603786,2210.68096303209,-747.058314323587,285.93630464231,-219.556655558423,-2548.58961609161,3090.4101871758,-2347.41773684404,-69.5616295992266,-665.033927705948,-3121.52288554801,2151.28399341242,-4004.16892516412,-96.1665222413704,-627.910821693654
"1",-9005.71196519186,1725.51732279047,-705.250625885933,-286.113081337607,-129.842482695379,227.865160237364,421.965971673071,-6545.24553170562,2974.53306340886,-4323.78119026044,-286.996964814089,-42.1612418282497,425.147952188412,5479.54722410985,-1680.96959557572,3907.20690779392,-5116.80144536115,-390.853273300865,56.5685424949241,678.822509939086,7701.09995390268,1150.90467472876,4330.49870468171,-4209.05311501292,-445.388883799876,-42.5147952188423,7607.49669374312,1068.61512306817,4268.98041471848,-4253.95439561827,-73.5391052434,27.5771644662746,49.6742513783556,599.626550446193,6996.64482314559,561.707949305063,3751.02469749933,-4495.16619635053,-491.704377967595,-83.0850467894186,507.172338806051,7191.71790640543,793.285420143659,4580.19578678821,-2885.525997327,-305.028187734346,-39.597979746445,-535.810163444107,-9643.43389347448,1734.00260416471,294.509974364193,-382.456380274275,-278.246518396907,218.054053648401,-159.982909243455,-7410.56745518266,2857.06494938425,-3938.49638286142,-322.705857264011,-69.7384062945215,516.18795026618,7771.54546697839,708.255829705974,4302.65637517249
"1",1140.20968466331,1850.23328132225,-993.131474176505,-397.305622679191,146.813045443857,1478.38350276577,-1986.43972504831,5329.90575154125,-6563.45353132118,-176.423141906044,179.693510769031,209.568772274163,2641.83932286059,1195.89434368175,5182.12043427326,-1586.48245193967,-153.530559865129,112.695143251606,-475.17575695736,-7081.23247184503,2947.22106398553,-3435.56668474249,-199.315723946958,81.317279836453,566.127366687479,2789.00592169504,-1031.66879375117,5547.95980518965,-5825.14566341478,-303.083644086084,-14.2305239713788,30.4055915910216,1219.49403250385,956.980639988343,4692.62576499687,-1598.50326721984,-227.158053456178,-129.488929304786,-644.262666008593,-6294.48778942735,2391.34674562525,-3521.391770309,-504.432300028953,-205.856461672934,261.806285734319,3058.32521697946,882.734427963755,5904.43001125532,-5325.48633415883,-279.572343611631,-89.4490078200982,-225.567063198509,-167.053977055322,1124.29978208661,3904.73203405976,-1146.30848065104,-70.799066466303,163.43005480174,-195.338248302783,-5189.98699721396,3488.86485837442,-5456.91980711188,-415.955564032986,-141.421356237309
"1",-53.6517270225289,514.862125051455,5829.0347507113,814.498623579255,4469.18002214192,-3334.71558007576,-217.965665300752,-62.402173439713,-372.468496990014,-1636.06831497037,1228.59803231163,2183.19218691346,-1078.42622965713,-129.577317652434,63.9047753497344,-625.612724654799,-6572.38075443366,2119.64096495432,-2449.94822011609,-392.267486863238,29.1681547239451,505.051018462491,3404.36559802263,-2240.73300123252,3772.76823102082,-4648.87353291095,-127.897939047116,264.104382773176,698.533111464658,6517.75675558699,1105.47306403752,5075.43569866174,-4479.07951707854,-289.383450200592,30.4055915910176,-242.449237599338,724.696062368563,1153.29116011526,3487.71580985499,-1644.11165460637,-157.331258814006,38.0069894887761,-606.344064867463,-7528.12395755492,2731.64188407128,-3569.56341977733,-571.253890851082,-99.7020561473041,358.149584670986,2423.43171582159,-4129.68037882473,4599.72961161849,-6666.77950972206,-417.546554290656,-170.059180875365,463.950436806024,7031.64660881432,888.302893865601,5921.40057400379,-4456.01015834232,-242.449237599338,9.28077650307396,-209.74554896946,174.920539996021
"1",-1408.29154308066,-312.010867198564,-442.648845022779,652.394393992238,1788.18466127313,2190.44003142063,-1858.54178600119,-120.473317844657,-440.792689722162,2996.71853866859,3564.08334222314,3459.69670365048,-3028.44995547433,61.871843353823,-106.861512306816,3134.78113769526,4003.99214846882,3760.12869730711,-2948.8120542432,53.5633386748813,-170.147569223013,2994.06688823914,3672.27067974468,3708.42151393285,-2698.76141874611,191.714326049203,-431.069971480849,3186.04637933128,3362.11596784673,3568.32598291026,-2592.60701322047,-421.965971673072,-667.685578135397,2859.3630464231,3268.68948438246,3474.72272275069,-2696.90526344549,-270.026402065613,-388.731952957304,3021.37888766247,3030.040945732,3168.63387484457,-2721.03528235348,-150.613744392734,-623.226239268293,2985.13966512666,3565.58594413316,3378.55620050932,-2951.90564641089,-46.4922708630155,-442.472068327482,3143.97352585069,3875.29871429287,3615.61374890211,-2960.83286952337,-139.565200936695,-611.82414242166,2990.5313543332,3543.84241061168,3614.90664212092,-2943.24358834135,39.2444263558536,-494.532805092342,3353.54229812485
"1",1464.32975548969,-1679.2902169704,-223.534131202597,-65.4073772597555,-483.926203374543,-1920.23685265972,1754.24353577617,1576.49456865541,-1675.75468306447,-96.6968523272601,-190.830442572719,-533.688843100546,-2943.331976689,1064.2840940334,1506.0490555797,-1348.0106899845,-191.802714396851,-21.3899801308931,-455.730320474729,-4270.30623993321,704.985460842988,1270.93605083517,-1076.83523939946,-174.036656519539,-70.7990664663029,-376.799526024781,-4084.33715648114,829.878196070061,1317.07476830759,-1061.98599699455,-163.164889758795,-110.308657865101,-445.565660495173,-2588.01081914276,1258.7384588597,1495.88439560014,-1342.61900077796,-97.6691241513919,-170.059180875365,-451.752844830555,-2286.07622357611,1443.38171709704,1490.05076465535,-1615.12027657772,-99.1717260614135,-93.4264834642724,-457.763252470641,-2668.35582715508,1317.42832169819,1495.17728881895,-1509.58458948563,-139.918754327288,-108.098949173894,-484.456533460433,-3222.55076691004,1151.52339316229,1407.76121299477,-1405.10956256532,-174.920539996022,-90.4212796442298,-308.121779902038,-4395.64091689852,610.23315216399,1270.22894405398
"1",-933.115786123297,2205.46605052084,-657.432529808193,-1596.47033522393,-341.62096366075,227.069665108531,138.504540764914,518.486047305036,3205.75698085686,-884.325418221426,-1323.43872933827,1916.70131875378,-798.323555959612,-1391.40936867983,-280.809780478707,205.856461672933,551.189735934913,726.728994364474,3096.24381812059,-902.886971227573,-1042.98250225016,2293.23567973562,-861.432836180512,-1644.46520799696,-147.166598834449,-116.584230548132,369.728458212916,803.980410209103,2833.73042560509,-854.008214978052,-589.461890466635,2483.71256891775,-623.137850920645,-1976.80539515464,-35.4437274069753,-159.717744200511,453.697388478817,824.751671906459,2774.68700937601,-790.898934757153,-674.579869251966,2658.45633221847,-783.562701902341,-1809.57464140402,61.3415132679335,-390.499719910271,482.51198981217,684.656140883873,2662.5221962103,-754.748100568991,-778.082624348147,2428.3814632899,-654.515714335797,-1776.87095277415,-254.293276184212,15.2027957955124,343.300342266068,828.375594160041,2974.00273332297,-833.413729975994,-1178.65861589033,1905.3876102548,-676.43602455258,-1588.95732567382
"1",55.5078823231432,327.036886298778,265.783761378493,-327.302051341723,4635.792057459,-2642.63481798942,2036.82108320785,-141.421356237309,-138.946482503157,-3724.50819320484,18.3847763108507,-332.78212889592,274.180654405086,357.619254585096,-649.124025129248,4956.28820603181,-2837.00079446807,1912.19351302372,-93.1613184213257,-198.69700551342,-3817.93467666911,33.1456303681214,651.245345472809,205.237743239394,477.208688953271,-644.351054356242,4907.05589639169,-3037.55395528211,1612.20346110533,-295.040304450086,-190.918830920367,-3969.43230453833,296.808071403053,-680.059946806162,320.761313615748,137.443880593136,-263.043722601396,4487.12285671453,-2658.72149726142,2122.46939207907,-259.243023652516,-235.820111525714,-3035.3442465909,112.960308294551,644.174277660943,126.837278875337,337.820264711872,-1019.4712017757,3773.74050284495,-3322.1644347097,1447.00563935062,-134.792230163686,-374.501428985926,-601.305929051509,-672.281772213109,1794.10668056557,-65.3189889121073,310.0663235503,-3305.63581369946,1527.52742405824,-2623.0126048115,668.56946161188,110.4854345604,-285.052421165826
"1",67.7938626462567,-39.2444263558544,433.014515129111,7723.19704081476,-463.066553329544,-1241.32595437298,1152.23049994348,194.896306564541,45.8735524294782,8.13172798364599,-867.35485547295,128.693434175951,-5422.53673987669,2585.00561532272,412.154865084107,50.2929698118924,-312.364420589155,-5815.8648869117,1699.97309032011,-2258.58744745748,2535.06619890142,682.181267149724,96.6968523272591,45.1664456482908,692.699480519872,8017.35346178836,-221.412810859037,-2565.64856718774,1278.44906038528,181.372889374348,-2.82842712474787,-9.45755319836617,-829.08270094123,162.722948020558,-4958.49791472301,2316.74698021007,360.889623448086,27.8423295092234,-313.601857456231,-5322.65790703409,1869.41355276193,-2029.21968531009,2284.66201001373,730.618081660996,100.320774580839,119.76621106347,234.317509615693,6631.77772405333,-50.1161931165926,-4299.3860063095,1751.94543873732,266.844421550275,11.402096846637,-352.66950711679,-6369.26433153782,1007.71555153848,-2700.88273908967,2649.08716736775,620.1326471006,61.5182899632281,74.5997654151814,267.993470069697,6702.13484878139,-58.8666395337819
"1",1596.55872357157,-1654.89503301947,-119.235880977582,-210.010714012405,-642.936840793868,-5476.98396202805,1936.32353193171,-3640.53926293894,-107.391842392707,-119.766211063471,-325.269119345811,6209.90014072791,2798.64025158871,-2804.20871749055,-125.423065312964,301.492653828413,951.32378573885,8303.20137808303,2293.32406808327,-1373.28975741192,-149.464695873307,464.392378544263,-2713.96421454162,4616.87695106226,727.082547755067,-216.905005128973,-0.441941738241427,271.263838932691,-6194.96250997534,1742.66466223425,-1730.90901199702,89.5373961677474,-42.8683486094351,-561.707949305064,-4530.07959367161,1877.54528074558,-3255.07767884462,-89.0070660818566,122.771414883515,564.271211386866,6963.85274616806,2419.18907513448,-1866.58512563718,-207.359063582955,179.516734073735,-4634.73139728722,2646.17035189535,-523.966124859231,-450.250242920536,-347.012652867297,-703.30608223767,-5858.73323552114,1966.19879343684,-3900.48939337264,-40.0399214846883,0.618718433537882,-230.428422319166,7098.82175302704,2365.18379472135,-2108.68080984593,-87.5928525194835,448.217310924623,-1864.55219364128,4915.45278941828
"1",-6.36396103068206,-56.1266007566828,28.549436290406,-2951.19853962971,426.82733079373,1334.66404948961,-189.59300570564,-553.841386364364,-97.5807358037454,-391.560380082051,3028.18479043139,-5.9220192924355,1875.15879535907,-2359.17338708127,-374.324652290631,-72.566833419269,-16.8821744008286,431.600301566739,-3111.53500226375,356.470206065668,601.747870789752,-143.896229971464,-241.123412384613,25.1022907321219,-203.293199591133,1193.065916557,135.499336944871,2244.5337001814,-1872.86069832022,-306.795954687311,33.4991837587128,-96.5200756319632,1091.06576337084,-2075.88873286841,605.902123129222,-733.534897133394,-157.066093771061,-295.659022883625,110.838987950994,-279.837508654576,-753.068721963674,247.133820024699,2442.52359891363,-1486.60361909707,-453.520611783522,-59.131804576726,-70.5339014233589,2102.14007211996,-789.042779456535,830.496914503601,-1217.99143059383,-275.683256315105,-297.515178184239,10.8717667607425,-148.315647353879,-1436.75259102341,281.251722216949,2364.56507628781,-1385.22218434445,-427.711214270213,160.77840437229,-224.594791374377,3108.97174018195,-566.746085121016
"1",-77.6933575828717,-356.470206065668,-461.740728114815,3030.57127581789,3791.50656072227,-5576.86279487065,-481.097776249797,139.83036597964,-1373.64331080252,2163.56997373554,1280.12843899059,-626.054666393039,-440.085582940977,-404.641855534002,-667.597189787748,2882.9627352452,-5217.82932672318,-135.764501987817,149.995025959196,1101.2304233504,5299.14660655963,3645.93095214549,-2164.45385721202,-623.933346049479,-512.033697926708,-4809.65193728324,1904.85728016891,-3882.90011219063,34.825008973438,11.3137084989849,471.109892965537,4500.11594381884,4218.33389151599,-3639.83215615775,-623.933346049479,-72.8319984622149,-2511.02456834108,1421.63818357555,-455.288378736488,-241.035024036964,-312.629585632102,-316.253507885683,2620.71450777264,3313.50237664016,-4815.75073327098,-240.593082298723,187.294908666787,351.520458597362,4436.56472185969,3200.36529165031,-1440.11134823405,-573.46359954229,-472.789271570855,-4808.85644215441,2021.52989906469,-4180.41529037487,-26.8700576850889,20.1525432638168,892.633922900368,4501.35338068591,3977.91758591257,-3168.28032145397,-507.702668891941,-53.3865619795842
"1",1281.71942924826,-24.1300189079909,15.9982909243462,-363.806438920478,-704.013189018856,5862.00360438412,-121.092036278196,874.249146589518,21.9203102167831,125.953395398854,-12.8163104090061,133.378016601313,4767.57908380264,322.352303873417,-1438.78552301933,214.076578004226,76.8094741063886,220.440539034906,70.9758431615996,-2924.24009359697,413.480690298834,-2634.94503174402,613.503521026978,28.0191062045171,301.404265480766,-35.0901740163823,-4651.7019600357,388.643564609656,-2664.46673985856,817.945769137538,-3.27036886298784,235.024616396879,-23.5996888221013,-5017.45294260444,416.132340728283,-2792.71823229627,786.391129027088,-40.8354166135232,151.144074478625,1.23743686707683,-5350.23507150036,455.553543779433,-2669.23971063157,862.847049742884,63.6396103067892,168.821744008288,-130.284424433621,-5951.54100055187,508.586552368424,-2503.77672383391,889.89388412327,2.12132034355942,249.608693758851,-66.5564257791839,-3407.98952027621,374.23626394298,-2571.92413987077,610.144763816342,-51.2652416360242,39.3328147035016,102.795648314994,5782.45409150064,230.428422319166,-612.973190941089
