"1",656.342729237271,-566.677218643425,1845.49092680152,4103.76243036415,-1401.24445862403,-4481.54334573061,1148.82683907448,1996.6434712586,-3922.92954348187,-2266.329537517,5513.59886666045,1500.44658706328,-1840.14194233858,1655.85484838027,4181.65879353604,-1403.88065510913,-4943.45463140833,890.351875837721,1700.71834030559,-4253.17585323245,-2379.85760665152,5238.13187505418,944.436732887634,-1878.88119819893,2657.91633419149,4226.27369858352,-1405.35445672065,-4338.1642438492,1295.73032400693,1727.2839378179,-3926.34629771392,-2509.80834339465
"1",1421.28132128863,-1730.68272291535,7938.3658820724,-136.875366407125,-1553.51966249105,7853.15854668416,1231.13002265148,-1752.63026117999,4381.12388115318,1614.31093086774,-1774.07665412485,2042.93201159793,2037.17661691841,-1850.37164572555,-95.9467087746415,2625.0561924634,-1913.03427176527,-4145.93699800927,2134.10679591931,-1184.74971970964,-6810.70586971292,565.186473044696,2074.18160517114,-4801.23103724206,-492.921627324595,4201.94017863614,-4271.3842792764,-1169.14236956326,7055.01408521159,-1469.37760208568,-1740.42794218466,6819.05467443182
"1",-4592.70031600967,-3602.45785309322,2747.18279654133,-930.427467439942,-6834.11318593462,564.730396914762,-1144.7449430225,-5339.87651003832,-155.528710370886,2689.99886421031,715.137100744147,292.276086005209,2175.80519641027,5452.85245278239,-936.568293893842,-5164.1276494744,2869.46120611425,-1218.43294269793,-6145.86644735044,-75.2370764381019,2809.54048137876,1059.9664976349,251.191084764549,2391.64631972408,4606.13365254057,626.544685498859,1616.05094289584,5062.15804054542,-311.910927743663,-1773.76131120494,3845.13422474429,-807.493402265118
"1",1817.57843151332,-5659.29049790376,-1939.87211649577,-282.028272470569,-5509.83113657213,4489.44324587058,662.429771569949,-3047.56745192383,10058.5635507507,680.232941977202,-2215.4423445735,12537.7346794807,113.573188085951,-792.924862177624,11650.7538424106,-2660.67704490668,-1118.17217807236,3366.16597830648,-7972.92359011653,-1241.18027111936,-2448.55970435774,-7591.64857652976,-542.958606383271,-6737.32897114824,2305.06078131141,640.255247618916,-3174.82482384488,12384.2235043431,898.940892763955,-1234.6740046533,12505.5320696434,-1284.71326105532
"1",-4102.81196264086,7949.66336115645,-2759.83609220008,254.148273630563,10734.9414282799,-1450.25960704164,-2279.38802974366,9267.78150920256,978.80858770273,-5608.28592177438,4259.04549215061,2581.91349033197,-8280.86039475148,1981.89996273269,2714.76044131468,-7583.2212710127,-3695.17960902139,1866.79454682072,-2274.43238269144,-5384.08341255519,969.559303094418,3991.41093480014,-5650.37602254347,713.474109041358,7739.78147323055,-2764.98919516739,-428.093103615425,11177.6052470642,-744.338381422833,-3716.79684491559,9107.06734876597,1578.86212202914
"1",-1595.41015928942,-1531.19509528706,10232.4843246533,831.985567162182,-3816.09581498148,9266.70956169967,1290.4666044908,-6015.95832895937,3473.94923942658,2462.68973777559,-7324.67644203888,1427.43108612047,2777.38109158979,-9007.55876151889,-152.855028817538,2598.7496654344,-7050.85197279463,-4561.70132798312,1961.30157350039,-4716.36471589256,-5588.19477225053,1893.34306931533,234.405890625718,-5562.85886340642,1128.70238044931,4930.33279176283,-4505.57344306801,781.142303996294,7492.33065567246,-4524.09957647702,296.720448577747,9604.96349463518
"1",-7389.89755137826,-1010.4094623871,-8461.4779640812,-1764.37681272635,434.490498193051,11116.1020316152,-10.4907874314291,-8731.29799296628,-4112.87424662813,33.0628231941061,12108.6015153394,601.100685696794,-8451.31520900423,-4206.6146906114,-87.0003549759321,12107.1375617513,570.285255767058,-8602.49067665974,-4363.34208762834,-18.9998064832959,12184.287592534,879.505909458834,-8550.30317650442,-4018.18528006454,102.270676864858,11950.9394541038,327.912081757684,-9045.48226791369,-3518.47536833104,348.679711019287,11659.8473006418,282.088064792987
"1",-1421.36457084351,-8253.89458354868,-2496.19369014496,344.394618199107,10945.1622182473,167.507050458234,-8346.28148633133,-3945.14113107503,-472.796151473061,11443.1455550112,968.022232267904,-6048.08353500238,-4032.2119503157,-7817.28298007492,1401.51961615558,747.861610809747,-2339.9345815845,-3921.77021285987,-4612.01445384578,6171.71529670998,1079.41188829612,3247.39146479946,-3011.8001389133,-6322.89273073008,4013.3205156183,762.324819135056,5205.29085526089,-2470.94575673153,-6992.89015617518,2206.37566698392,844.600583890921,7641.60352842054
"1",-26.2493406126987,11279.4023346615,-615.076443187118,-1830.35530773304,-4090.36863210158,-6459.08474225616,-747.55450640555,-956.510279990345,10670.7724955597,262.048120518276,6318.79397707205,-2095.1203803667,-6353.39881742748,-3848.9895002567,-5255.85140135324,3044.12395624406,-74.9073845958515,10620.5648441354,-298.299914440481,1670.30773511811,-3638.23697727602,10018.7350748143,-360.96207652328,-5570.06065921909,3094.27324154246,-24.1309815141479,10426.0061852458,0.215471018438614,3023.07179410901,-3023.44987655172,-6664.27968738375,-2887.37986614404
"1",-876.492416936544,-4152.97562957604,6642.58534525232,768.003415321385,-2226.92800369944,-2779.09466946604,-1351.41618479548,7695.18501349546,678.767148242073,-7702.22616411551,-1369.23406470577,429.811618029737,7682.39657945438,-1069.68893249807,-6644.6919181782,1126.05393693384,940.094759963656,4590.79105820303,-1740.00942288804,-5870.19807751518,3302.67297976442,1094.13876640758,2127.10713530251,-2279.8397543598,-4796.00507492519,5004.72514143738,783.726429315726,1138.31229394227,-2289.38213742707,-4169.08289048888,5076.48983348764,1122.60466167208
"1",708.474669537476,-3937.75427424178,8427.69381379849,-369.075906348204,1614.24495696697,-10513.390254704,-217.815701809521,108.99914465918,1653.20448898506,4965.76387054986,-3727.89939149811,277.94718825225,-5273.44036904026,7055.46657312082,-6.07903993122423,1470.08845838423,-9821.13352472302,-904.037389431505,106.513670368097,1576.66166149706,5911.84255126625,-3514.76397893118,578.976518834734,-8574.12622827934,4699.52511634006,780.662194108072,1365.9907215617,3898.31277526692,-3600.7591010228,525.796544370722,-6625.41677576564,6305.52861349237
"1",-5363.49596794128,-861.56049249317,1313.71520036877,5400.15023696757,-2159.94043767994,-5488.01510478636,4401.3120365367,1300.26675238967,-3157.16832396415,-3342.49376561361,841.122009391547,10226.3898347614,-4.66917934691841,-7273.06492929673,1671.87397882161,1559.84272624429,579.259742909002,-3122.76512301368,525.150068203739,9568.02274359153,-43.4666637740233,-7017.34533638983,1625.86976833895,1442.96470526422,-1480.64660839412,-3298.71723950076,1086.1895487229,9644.19310360323,-509.405477338759,-6733.43446859742,2938.160534676,1569.07716907767
"1",5040.15416696078,2454.2761834511,-2364.4193768974,1179.35581557494,-37.7958408751857,-3203.02929049129,1250.49064783605,-1097.36827363742,-3829.90554565782,1023.9800898708,-4687.51243741883,-4133.33284578092,815.018994571248,-7671.26634430764,-2869.93198678958,960.714350414389,-5379.30951818009,267.05834152902,1710.41584221649,-3638.06382838009,2346.64860530405,2182.87891194158,-1410.26149614286,5048.09308970022,1943.73818545169,-1540.46200793306,4947.47408058804,2236.43578588076,-2428.60758550228,3580.9400797945,2264.99765193987,-3654.16118631654
"1",78.0826154412802,11937.5194185938,1056.17485208233,1298.99257516073,5882.15521063966,-2540.99109185159,869.556347828288,-2439.45850598149,-5223.7526892941,629.150119465418,-9622.16633407431,-3402.6627486279,1070.46239331937,-5593.37000516154,4767.80631986059,2229.27535380833,1268.12295211336,10664.325168599,541.073827414282,1097.03530129941,5001.89235708094,-2915.84281348005,897.908884956934,-8061.62177831914,-5991.45232241029,658.210654859186,-9066.74715840006,-1649.63672805463,1247.12769644834,-2775.24888095396,8704.55326628988,2488.87162837888
"1",-899.864841843614,-488.135399925093,11203.0531982293,-3205.95296010192,-387.010856765826,-447.041283936798,9430.14702427669,-3951.84995970179,-434.992255947599,-413.10500861682,9301.4457858831,-3439.01115037258,-515.104879380898,-474.920648688284,9663.37189313917,-4316.3980315032,-445.445410633892,-417.435247771185,9284.19872335016,-4931.86164280558,-495.180228733572,-525.083790545463,9949.58544947114,-4595.80307120139,-518.672921488988,-822.49763888476,11405.5866962775,-3008.37489150549,-538.014063157478,-856.437898014889,12001.9082609708,-2473.59121901098
"1",-415.810013577928,-2295.5819997395,-914.267677108092,-5415.0365579365,5869.00833305073,-579.415466297987,-239.782069215477,2372.0621722058,-8697.65050072676,-651.33579272363,215.267406389514,8375.55852816161,-8204.15309565152,-637.807897734073,-291.549534498496,12567.909313135,-4896.54803931017,-667.510149229257,-4302.43137413452,11896.1736976115,-769.29912153456,-1301.27326759538,-4131.97146534628,-2847.65779977925,-337.806849309478,-1808.6622222397,-1959.67987380832,-8472.49466644301,-684.078697087959,91.6887135755118,10264.585934169,-6904.69980894463
"1",18651.0095145413,-7448.33650016885,-4249.7658091301,-672.297217362639,19881.1309405069,-4282.10389681135,-16068.1386835472,5064.60873565314,1857.12410030953,9942.88457623302,-6705.25666018843,-11354.7029517452,12057.4563222187,717.365938839811,-4139.4691476459,-4477.49811906368,-1638.27541164082,19158.5367476211,-3331.2465460768,-16110.8865268616,2146.39689812224,1517.49302199917,16098.5745863742,-5855.08400894042,-15782.7779363713,5061.87714135876,1356.13367979379,15339.2969156126,-6136.45481384721,-15539.1943285876,5642.01793018016,1666.21367074245
"1",1640.9004881505,-4108.71527644377,1605.13633701867,7380.7401918207,-1334.17431391612,-1340.17061299855,10065.1953381957,2664.58895065685,-9563.22444008627,-115.907641720191,2834.43553748888,-6980.72551756959,-5304.9743433913,1810.16655833235,7924.90592694836,-1801.07735819251,-2358.37836129641,9332.94614506566,2536.70479500317,-9760.16335654888,-908.616330816179,2236.70389394883,-488.099588549919,-4221.22997576763,1011.18649275169,10403.4896501816,1121.23571184468,-7017.63449878584,2659.35238518263,2927.88284307809,-10125.5123276591,-4510.67908621615
"1",-66.9998627691122,838.705111754292,632.65118062137,-200.009943232304,-2634.49379990424,3675.1659108818,767.177153082669,-6946.66744419561,441.636918544303,1086.39753727354,1890.57829137828,167.622342499313,-3877.92256111407,2823.83939979538,1079.56082474852,-3625.07379580744,-41.2278792857046,1433.08865739889,3580.21801072826,-238.131008415194,-3711.38084927438,2305.57251881667,974.854864728702,-2900.4934169562,37.8671579924281,932.190073759276,5536.7997002256,-10.7317239448714,-5656.045039758,2313.44299825826,1058.99934863385,257.750291450487
"1",-399.813335031752,115.598662226186,-1238.31096221777,5734.77268416592,-1939.9105236234,760.648029600306,6339.09278971054,-2042.38586516093,502.822348462915,-7583.096900873,2693.6656071559,153.644955083592,1098.80293200352,3079.79579949726,-3129.79775341032,212.430077286929,-4805.56133799716,4912.10847973681,-334.582537129536,959.635648779592,-4699.33355216109,665.525277825086,-19.175796591762,1114.41470327967,4756.77780714836,-2725.29694382745,237.937851059597,-5536.77047294637,4923.63814616348,36.118088346388,1116.52943001708,-1763.18963773893
"1",-1529.19284748828,1619.57559895945,-8321.20393464579,8491.14426270925,204.446828494435,286.650681659158,-1723.70969435494,4341.18125994382,-5412.93328653053,-203.488237387884,1021.64809500798,-1892.81651044285,2849.68528990177,109.924292273864,722.273057569859,-5362.68713340992,6922.80446331593,-1824.55878788463,-22.3800366295009,759.814292140515,3009.32446530682,-5235.74650019862,-405.219997311262,1151.8968789726,-8539.13328786865,8271.4576360009,556.0207629201,106.309523601795,-917.235443400778,4649.26163817991,-5721.10730654321,-170.258640842548
"1",2833.35530291228,4006.20741757094,-4992.86841070839,57.6673188533391,-2863.82443729979,7720.9191145645,-1662.40750267399,1039.53863807583,-7266.54737480941,5463.48216112617,433.874182395021,1390.26738989451,-2171.0456771936,-2146.35693398141,-290.284749444001,970.44032596456,5690.93143156431,-4567.32077813067,571.101437728384,-4882.04154081151,6956.61494049323,-173.913871879872,1378.98747587187,-7797.70188254767,1787.04034012216,234.268316384955,1056.54705803398,4859.64676486792,-4800.76993817624,803.888807498372,-6383.68008186982,7266.65235637962
"1",-4458.8070925736,-222.974631689954,-1254.44528189638,-2376.93937085759,794.812591594859,7185.15427915633,-569.849434134866,-2937.20259937141,5645.18404171395,798.898562762545,-7361.98763115095,-1669.24931687916,1007.47706521136,1376.2660212081,-1924.02512969875,806.092937951525,8015.21058417961,-449.632185605145,-3630.76649688591,4711.14256277631,821.779076544098,-7059.76855987391,-1592.10147109845,731.207124321407,-1250.29578326944,-2517.28766058231,856.030371489286,7062.25434928583,-1006.40096458826,-2466.7734916555,5555.76456346719,993.008399670924
"1",5368.88503121064,1764.94745157582,1743.89336835191,-5661.72817195045,-1004.85884805602,1457.00124820523,-7603.58947067347,-2681.05412924544,1093.46740506866,-5612.28623047734,-3472.47263858902,691.765042791507,3116.45391070694,-1138.17121184353,1249.96043066155,6879.25991239017,473.781145208872,688.259258839189,8727.01517431915,1745.42318996698,-4058.40134117771,1381.37960139782,1478.69310306057,-5807.49959200724,-2306.39707398138,1080.01928225232,-7061.05149922294,-3665.85158110601,760.572897384896,2655.8636769155,-1450.37398955903,776.970208024404
"1",-4980.9881429441,2256.59389976734,-3605.29322189326,-3507.96164514759,1066.93812792811,-1322.52316624424,-3672.39488015331,559.868070520642,4774.69390603702,1130.84182607537,-1187.31624118787,3066.97218054489,2889.46827647276,-4447.45196522862,-4998.52765806962,1008.78679475415,2215.86753198055,-1575.2372710843,678.870933580334,5678.28901966536,3224.64948244084,-3717.0074328828,-4056.3648926104,1155.11073299371,806.37258373957,-2437.21792706795,763.567396488098,5982.7580636917,2957.59199879745,-3691.92712766566,-2998.1999276013,1671.25745995659
"1",4907.17220608523,421.64261239744,-3542.23486599013,832.911617536641,487.940242847412,-4538.74044770313,-277.714878502588,508.802871192429,-5441.62639316475,-361.319451309,487.420518393754,-6093.28584980709,-1047.9008841076,802.848729314379,-5248.53575076293,-1553.46088113474,767.521564696277,-402.849968193325,-468.548818466861,1124.9497515153,2295.84774075853,10.8308981129811,1312.8865678164,3730.14799135132,188.792059406584,1301.34624026177,5034.73027759305,349.603123029811,261.540870395994,5028.08735623577,602.460846037023,-249.456801625443
"1",589.188745115759,2255.56674362162,188.132891149193,970.430802895266,6351.1492294003,-2445.34524982016,699.94629949243,-7181.32306183684,-331.727839562027,-240.107033408032,667.739266468286,8533.16531791815,-1508.3723332421,765.359967037609,-5583.91841886753,-1740.1928144739,-36.6004727964053,-1671.98626113297,7035.01143773759,-24.1719822038623,727.734424014203,-684.977515532099,-2251.6302022301,285.847146229852,-4084.87746973451,3840.94866826253,395.243864398566,158.449488621753,4731.05235801219,-2335.5376409439,-542.571558018736,-7176.24995007735
"1",-2196.47619899286,3320.1445689177,248.31575047549,-630.333767037405,1929.53069050538,4258.32333567781,133.29225627443,-440.713960672533,396.666919695836,3434.35593190656,-1335.22739484379,-159.291523481216,-1957.67975091311,-1340.35399886422,-3115.92647199439,-245.513533352425,-1240.67260788096,-962.917536149797,-2103.6233885536,-302.037353669218,-825.277790704868,2809.37645522321,3206.41303260591,189.910696770337,-600.184929646496,1691.8282689415,4536.58370652708,-104.862115972064,-293.805601866332,-746.113922779801,981.728943906376,-2445.23262766894
"1",-2173.84981119574,166.232017164895,-2611.70045241255,6477.46227492717,624.992321148628,157.716604585535,-4026.08033690894,-1434.09918492548,-202.156952567343,-124.519450965312,352.257046869965,-5044.89906947198,-394.345958297871,-499.959779556998,4725.03022927516,-3788.22843572506,-348.821556061074,-1453.48170700233,7825.50751663625,-299.626552221987,-9.43380825059934,-2361.82537796702,4604.63771604216,518.645662447906,241.802020284549,-3117.66661274346,-2442.94439871493,-183.983267402779,-346.642182784755,694.156142386181,-5228.77402597833,-478.059786685361
"1",1418.05689398253,-1126.46040080633,-4556.51958551001,7.32237679529883,-5527.74043227514,8539.3869117319,-63.5462566912297,759.030665010719,8370.99128463164,-4592.96198302462,650.172135378172,-6302.45256994225,-24.1143972258862,-159.789074861161,-3276.13782725811,10233.4237531374,-1342.28645566105,161.480041408818,742.106275189045,-5693.25488450503,433.911645625527,-8738.61500522151,3607.3470551229,69.9427344403074,-2744.7825230913,10221.4942855097,-1688.93215012177,199.407162016442,2067.2803314238,-6143.86770951778,503.847929537853,-7016.17262826334
"1",-6851.6494215729,-2282.80420982929,-4158.96587429023,11009.0676430197,-2662.27423231939,-2311.21577014048,10471.6717397796,-4085.57170485168,139.825597589217,8197.87970342602,-6519.83859174718,557.669938272844,-9219.86433562112,5691.18559034695,113.884476739272,-1346.24948583991,10543.0924657612,-5783.19541011751,613.797368107786,-9513.33490736664,6147.70309849894,203.349684847522,-4095.65953617287,11179.8449640701,-3691.01505681901,179.775098726892,4588.97609950286,-7583.97978587811,513.273414092363,-7403.36904896763,3568.52316659279,167.890907870279
"1",-4745.12643742819,3322.50343320319,1213.46704561285,-8616.17460699028,-3852.5781028625,2480.72266697356,-8370.78371585824,-3094.61115557769,2112.06731992466,-7187.39357726499,-2262.34022968299,2330.60306758465,-5888.33590492448,-866.828998095962,1893.3289103391,746.409486473047,8412.73175173847,3046.14737496166,2001.21669422133,-10833.8730236025,-6478.61622320796,2043.96701540055,-10829.2328464977,-5669.57268818015,89.1023824573783,2744.96739938142,7256.07166791491,1036.16700429441,2489.94635784207,7730.73022721243,2052.71681449606,783.732893425293
"1",-101.650918512511,-1187.19000999861,418.589994742557,1994.89013423905,-642.819844851651,-760.216453766994,1740.96117963594,236.811332368662,-1360.33725523418,1932.89502270118,403.892589768883,-1682.73006082011,2077.45568493269,263.221705643379,-859.082768598487,2177.27789456431,63.4190745877396,265.356554219537,1790.82787511755,-495.14253800565,385.578366223039,-794.26740439619,-556.453148502366,103.736500107726,-1012.49966534132,2056.94226029219,27.6603786870405,1316.48761657135,1621.88973140391,-1054.06657210187,268.298841445252,-821.236547742805
"1",-2193.13214840802,807.282188991014,-423.018068689796,3478.38298390868,-344.164889832005,-2690.07296957885,-161.685097513506,18.0090709977461,3487.29678178675,-540.631386061656,-3664.16866209189,152.264381276332,434.403405611197,3771.92697330467,-674.543698137675,-3380.22789411723,176.941241948273,270.773342421108,3522.60848046902,-662.647314923329,-3566.33969476214,313.906849743225,498.872599999141,3932.00032517873,-903.337750275582,-3828.32888009227,459.278289325825,152.624477084391,3726.14347970155,-674.013181960892,-3474.98249689071,234.239708422528
"1",-3939.46273378137,679.138497905633,-1954.46173265431,-2338.70082763409,4899.60580140511,95.4828396042165,-884.645320278314,-1578.79938796547,-3257.39486629349,4379.32662304117,394.235624139133,5094.87065465119,-1450.34696809644,-885.276713468826,-1774.8706566356,-4795.11190800362,2926.25515184731,-880.303231611368,5586.25081761518,-209.443050683677,336.026256180106,-1747.19933925465,-5741.62352319556,1693.35821366966,-1.52157387831772,5962.4265729597,-1139.72561187706,-2017.05956784331,5125.36110948149,-639.578640321684,500.73871158416,4925.49761407539
"1",7478.49160761201,-339.694059474641,-2205.81065987743,9338.49551333326,130.998960038839,48.6934166250908,-2079.61441858807,-3548.94795152379,-985.837432701846,299.356311195633,6697.26649997345,-4435.21051967529,-534.696048339852,-2638.62382725587,9013.78853554716,104.367850334389,-78.9568789999007,-4100.18642908507,962.608054725385,-874.329150711093,216.31495685756,4601.24759606673,-4000.42341706996,-277.012642405013,-5767.27429798141,4541.26788864671,-323.291180972261,242.938998766972,5751.79638989869,-4502.19543907768,-395.985601727919,-4187.11447273922
"1",-5818.30061308259,-1106.31511659364,-200.263200763344,6815.40597547459,-4143.65600944107,-275.178537239803,-3768.53291747342,-1245.19186505422,-668.176932593593,-1710.00709396957,10507.737763385,-2131.64381707711,-199.797201174611,-4292.90623705785,1021.30187209636,-649.385517531556,213.626724506644,4872.75135995949,-5576.16283823127,-409.446769810261,-4552.26582678019,7082.32476222771,-272.76302372043,108.618227839778,6099.88498647048,-6191.68674562961,-194.803284617718,-5403.69065979043,7631.23633679675,-230.712619904329,-376.867346938546,822.753781985489
"1",-6898.50515022369,-2911.200383867,8045.01962463757,-26.92028088821,100.018191494812,-4551.40543057012,1105.01813248229,-668.297392915631,-231.73607930267,1963.38914438653,-4344.4299482355,-361.875846008366,-3243.81949772405,7881.80388973527,-111.664685339974,102.427295908246,959.51221414067,-5401.07879144478,-616.557248844549,-2398.84901157643,8267.53086074992,-917.229416913003,-88.8338768629572,-3908.78420316542,5693.32003056504,-217.948843394194,-14.8570167817615,-4339.29250169543,1352.76569619504,-661.344591469645,-32.8510612279238,329.042928107704
"1",7691.48390389774,-3571.7825368236,-2890.25569769844,6473.54919417571,295.855762832232,-161.365903927543,-757.572356664062,-2573.65046162936,647.292258732705,-748.23654954437,124.454816111544,-1098.43910565229,-1709.24298252053,-4289.81885036028,-1210.74759357841,8357.8574204714,-1701.49295841082,-66.8251234394249,-426.462683329313,-3267.96767185908,8847.63345923949,-410.575507096477,162.167628911951,-615.740168481543,-3343.82926807907,3977.81044579059,-776.322452370989,2005.48781630726,-5173.42451538559,-189.917232223803,-415.24409308323,-592.550629085518
"1",-1865.95379569221,-451.367598578572,55.5124717601526,2028.42349398152,10391.8826304732,-292.025809274033,1386.31274978819,-11629.590863401,-2625.8725829518,118.382857093503,1004.60854199314,11139.4377245546,477.207637565528,1747.45022401423,-6783.0995219655,-3715.95601924007,228.511803355555,-3121.6734160061,7773.471167467,801.06342018808,2047.8753677263,-612.830222019058,-2789.11906361753,689.54913798458,-7433.67445722392,2514.966210518,615.949606579937,2074.45833131468,6388.73984804828,-1364.53310061581,957.196760082757,-9207.32889721037
"1",2367.71098429804,-3000.05618744394,-94.0459952453602,-208.937186217874,840.78222725345,-5911.98704245171,2860.30480181264,54.0153838170899,-8262.52278557245,6163.50675566817,839.716363888822,-12333.6282128644,3398.11576337247,228.003256551434,1039.65998242083,-7736.04744789052,7700.78440549474,710.546426288708,4027.33154342232,-2937.48689204328,-319.975133821198,2152.78096978619,-11539.4177457738,263.624819866576,2282.55130425668,13151.7395362449,-2789.0819751554,-137.856046149036,1872.67244822553,-1243.74080792846,-413.847543215327,-10065.0787625234
"1",-966.358443866847,2029.32936787316,-1313.04981773174,-380.961997989416,1827.28231441863,-6040.48884659389,1191.15192433924,1947.17846178386,-10079.7197369791,2621.59315886613,1803.66570895677,-7992.48816129893,3906.68590644388,1313.50891935251,-6145.84616656846,4379.69854518511,521.549399984192,-3746.43745735039,5445.30188626651,-1202.56865992661,157.165498866133,7375.81801677697,-2469.75993117682,1282.74823268849,5938.04302604303,-2866.60004320918,1401.19616575623,3349.94322298073,-2433.90505783279,1490.76567922818,91.0785956977146,-969.59679815981
"1",2689.81452018468,-1420.26610434618,907.161435379551,2117.89689695953,187.7260150608,702.466582899427,2147.74868299272,-1130.73509515993,906.223219445478,2088.20036297423,-352.090659805345,985.488332717401,2009.7190288991,251.406321942885,592.819187901197,2020.89989647907,2772.38856634217,-296.693221116383,1871.19313248303,4037.44834718046,-190.692193097446,1994.36771697593,3621.07547718548,-267.400993357959,2121.88262050185,3663.60704890766,-361.645818649803,2040.90087439596,3837.79950358699,-135.995381734475,1571.66703694942,3942.06480078605
"1",9989.97335716474,-6133.6810640928,7077.13338019678,2223.66014290113,12497.4809250794,-1216.27065610441,-9286.90040396335,-4866.00188344027,-10213.9438702047,3787.11468825503,2301.93408885292,14097.0877570662,-597.089444910792,-7013.31764999563,-4472.83666944965,-10604.2077769025,2595.86015056668,2179.75300990178,14885.2006770844,-141.876049247242,-3882.19906209575,-4358.69636475264,-10560.2959469779,2558.83968843792,2094.42713816181,14798.7801680744,25.253976850495,-650.334501786375,-3916.66833478495,-11881.0031952156,582.418684313323,235.233920533996
"1",4176.15251360237,659.65958252763,11325.4203076834,-954.374989171854,7190.03267849204,-2207.30584085211,-180.06491877669,-2891.86891180486,-10074.7827387638,-3372.11311705719,-12167.7815996071,-1162.04385254935,-11113.0669716757,2420.35700984427,-8895.25271778097,6226.8566394976,-3895.38239196711,10983.2221424959,382.065662640344,14558.8853328196,558.625404289552,11823.1686887179,-668.494326940039,8089.01683861209,-2041.41733492151,1449.67626591687,-2788.14515661968,-8492.06318570574,-3447.37526597105,-11800.0819380606,-1381.3284831598,-10853.5324586896
"1",-2043.22638701915,-4348.2030142616,8180.6752306651,1830.37480128511,-10337.4093622215,1648.96163737867,2142.37469262735,-12496.7506749286,-2387.12775036581,1559.38536150419,-9559.7290720701,-4033.77302910711,1344.7948848915,2351.31694325766,-3354.98669887309,1092.3081799151,9935.02827113721,-1824.49926759606,-562.208114634647,13360.0644087714,643.666685749122,-5352.68281871344,7823.14871820973,1854.49853087067,-9984.73828645133,2399.43182966393,2089.48859061397,-12097.0826894605,-959.221132384076,1763.39558733582,-12503.1830806325,-3341.44345871853
"1",-942.760531883352,-294.128054636758,1710.53364752581,-637.327277324345,-2295.188885158,-326.556967857179,1618.75240921732,2206.8884067334,-2231.45132253902,-350.709642715631,1012.21650210149,5546.52534074449,-1230.0058157018,-213.616266470011,1006.95092109283,6431.55489460365,-946.560456262425,-230.184631826207,1413.59774974067,4490.70350340044,-1778.26083466697,-367.29943125797,1254.2122611322,4439.19406750279,-1752.3090224788,-362.867994510638,1362.02178269541,5146.58378562959,-1394.21729909268,-286.89665614877,829.892137545247,6025.26287847461
"1",-4555.65413609853,2227.49444166426,-171.393444447606,2248.4929456621,3027.51795091833,-4107.74761453783,-523.417234720169,1795.95930875499,-8875.26153562049,-1207.64400838179,2005.22657801995,12.6309924923235,1882.16875704228,4391.58705100622,-3422.36950557724,-568.122596909578,1290.8796740358,-6894.76747608804,1317.36537480396,3134.98056219277,-248.326608009374,2336.88891326591,-64.3487321202329,-4519.40994161875,-83.8991438991266,97.5172816476973,-1078.92001301356,8033.99662932894,1649.01493294463,-277.187105142897,2270.6518232345,1192.84757746698
"1",-6029.43268101091,-553.392672834464,1650.48053572935,6469.24680261768,-1447.21072748892,-636.464136285081,895.921057119594,-5304.01538478076,255.229661967552,3790.57486245647,-206.245219042042,1753.90470328793,-5140.0306907685,-5663.24303602125,796.152927477866,-181.476418485373,1873.00082976538,-451.073607591091,-5879.49486167826,-211.987886510003,171.87952187184,448.538942286183,6831.85433443753,1619.59533409277,-180.114539199091,1345.87168088245,-7129.00040458732,-4159.06714446992,1686.24503533132,79.6860997545049,1603.00912126752,508.218698083579
"1",-9153.44766147056,-7305.20382174676,-493.919087797872,3051.07465923283,8168.3372833761,-207.895224357724,-9444.56398982934,-3812.44328936331,1925.50960024557,11352.3425823575,2695.57444828766,-5524.31739504399,-4615.08259458614,-5896.31108671832,2892.26541440052,3641.17836731667,8400.70718256415,-39.8702858946322,-10384.7052740926,-4376.09516696889,-1692.47322047118,7228.59581381107,3111.80894528448,5865.87756176088,-883.104931987273,-10019.5472028425,-3814.07102983584,840.57429933384,11123.9324995319,3121.95211975649,-271.633233552202,-3075.58491767429
"1",448.60697551504,3139.74912473472,-8475.5683579435,-3295.10842224513,3846.76625634705,6368.86668391712,-3560.66484364043,294.455314709208,11148.5512133253,48.8431483998143,-4232.25912717313,7846.27476699911,2074.5964259298,-9844.73253436877,-824.849707586243,2648.62477084301,-619.066133918267,-3837.96513735771,1833.91436016958,11360.145166501,520.319905186377,-7802.44697352652,3236.63839767015,2720.54806943129,-10528.6196423265,-4186.00777664301,2230.14148799049,8851.97199416178,-336.515507722594,-9074.26647299341,1276.51039204585,3045.47066911718
"1",-5859.94598933074,1000.78325576149,8266.23949781874,-1278.89670871872,-856.880068438352,9982.37710301522,2680.57947824841,-9435.94437342103,-1113.03886466516,2882.53187156274,2432.40844852519,-3206.19218692049,1009.28098905548,11283.7646464257,1589.76915235255,-6676.57329776334,4114.43879164466,3079.4568419357,-10701.2314197304,-2550.81506454399,2452.74076894777,-5856.77205239853,-4728.25081352977,1777.63120225079,9338.19611856624,588.522111374809,-7238.53357593803,2744.19369367868,3029.21263551464,-11086.6155282646,-2934.9374869514,2425.67145597814
"1",4409.71265746756,2581.59328389781,-625.041487243619,-4410.41088873086,3484.47374683367,10466.549629353,3653.67623865008,-2202.17733294714,4058.55808691776,4584.71601759267,-9000.10969862688,-7464.76450640262,3872.85770732316,-5900.81411849229,-6664.54657748943,3145.37996072867,8373.17289685718,1419.41873590378,2737.11757869838,10631.5506384058,4322.17610405226,-4815.44304920389,-935.893414421665,4717.6613466062,-10931.1586883727,-8910.62961697845,3379.15433835011,-5837.01239011961,-6525.28461418426,3026.47040537738,5126.40466240648,-1110.98288153297
"1",-2743.22889890234,2553.21033430334,8072.35187379629,-2790.3769345956,-580.805360882876,2558.16792066903,1484.28124138626,-4379.51377886087,-634.859240852017,2449.21694656871,-14542.6746585049,-4621.61695944181,220.907701701347,2044.77661493996,-13396.8366082561,-1724.295350899,1051.31829963261,1455.71666915743,-9425.74762042197,2396.26429330842,2115.65435441931,339.686758026223,-137.678161645233,12399.5814827287,1570.94724134505,-6.74556889810786,2779.78199407804,9782.26987721518,-2120.15938778604,-547.32925877617,2661.02521298276,7855.04515333041
"1",-1301.50277239666,1911.02895772577,10888.9722886164,-3372.97250630886,-577.50835795095,2365.66275173336,8899.49394576692,-5961.24592206252,-676.431155719479,2278.79468246306,-5463.85916533993,-10449.4409987976,397.818088553845,1797.16274215838,-11566.7558643778,-4313.49345737006,4523.38241015238,2110.13168717992,-9076.52819668764,-1704.623585475,5464.02641744466,500.324375995338,-12.8688172760116,12022.7963978348,2970.87569017573,-195.229834845811,1650.17990021213,13072.5457484473,581.774043026201,-339.593646864527,2025.55197030295,11726.0765318939
"1",-9400.14880330994,801.587274875789,-9113.05506939246,-2402.3105246777,592.003044870894,-5409.96553014105,1817.00811161277,1020.33460507107,-1870.05100720292,5032.73352664934,1015.15082949309,1788.63810655053,-8241.48313771594,-3232.05401821125,-325.647418400283,753.624191040062,8349.85880997372,1303.73448054088,1910.33812552788,-7316.14496921986,-3472.08156534416,576.797463115258,-6266.94822532978,2274.63212003404,969.437882875016,-362.46277701996,7070.71852704231,1321.08863345279,1922.62047483132,5812.26193292882,497.128058026772,1827.73291395351
"1",-8972.39801484581,7264.72484651517,-727.677313720275,-1764.41827588445,-1312.72174202615,-928.72630114317,995.528890327414,-1696.80308978438,3048.21705540754,2295.85500898609,-1696.56274438939,-2061.78960353057,-2506.84199980716,2442.26970746055,4059.55194146912,-1103.85065635066,-1966.95985713286,-3378.71103805955,1651.18018884605,5120.79365421394,-675.264865947108,-2532.04264507766,-2933.61855735867,856.823173934264,4164.27157726044,-816.052026690037,-1815.23346087963,-1507.79992934187,90.8866341679902,3304.94019104016,-1159.08979592235,136.340001698894
"1",-10474.2703165444,3208.84009235304,4418.33418735069,167.595588197975,-2905.55073094084,-1378.3280485357,-803.037133584089,-1272.99903703281,-1693.40922703639,1302.39965056222,4490.88838453308,9.63576307550393,-2948.38223763205,-1388.75575364873,-1140.07240806653,-1927.65063287984,-2897.68704563501,1229.47135142835,4040.81795488627,136.040879660264,-2408.75672624162,-105.568246737296,-1044.94744394679,-2316.18414631463,-2526.54779679279,754.899492995221,4834.24025087889,133.310761343674,-1886.68073796786,476.335836664947,-1302.51980181626,-3015.03865862897
"1",-649.834737862781,892.281840207316,1057.9419535327,-269.57015558128,1362.47786703774,1122.91703540619,-244.974672072677,-1167.87601077428,-473.333605488809,571.466047144368,1289.8294714552,-110.916225969646,-1395.59902621067,312.936593220105,-589.379838935681,-1477.67942238217,-383.090578066313,1383.48191735875,1077.42559493387,-186.313751196654,-1244.20575446027,-331.115447190184,429.251126478225,1074.93194781909,-22.2929250187029,-1183.98001197046,130.821285747212,-563.730321612368,-1470.65937929649,-372.006375596895,1574.14124101465,1011.25513965834
"1",1704.70295025099,-283.835496811967,-39.6924935336607,2793.31466444482,-396.304229577758,1515.26159268394,3901.41609294464,-421.676485590737,2055.68081675918,4718.43828199929,-350.849561538219,1979.74421605656,5627.22849512291,-344.279711285549,2066.98372428081,5926.93922132657,-353.56802150273,1942.3646570755,6464.94334165159,-395.828111456129,1916.80352303456,6256.46427481179,-384.16207292414,1851.38476081041,6376.18595838154,-445.013050664783,1259.58064098737,6915.47185923829,-409.793284084264,1202.80640357868,7283.30896426658,-514.183057338604
"1",-5013.8746661214,-1362.94753283858,-6036.11959523484,7213.7589863523,2043.41468133769,8532.84031385376,-1882.59862504313,-10871.9266752159,-3880.2738608798,-2234.69461344716,12233.4480830066,1952.52759243039,8436.02964240675,-1880.06919535552,-10894.0844066977,-5225.30114854939,-7595.48927007602,4256.35200818217,1886.26656566645,13694.4451401753,1015.30382370751,3414.75441870901,-3349.35022894881,-10974.6001582239,-3698.53522974733,-5420.3904166597,7811.29198372354,2185.91768312179,10646.6093249537,-401.270470274241,-9724.19260802202,-5760.33610889135
"1",-9683.70502350076,4096.78102905918,1871.73939746136,-12730.795962425,-3661.95355732924,1735.19824930864,6904.36458017364,-2105.09778377349,-1775.57340148643,12611.1223927618,1822.72282957043,-12106.0365068832,-1979.15073787488,1775.86618863487,5180.54788031529,-2396.01116583474,-2985.3209065172,10688.9879782129,1849.43679886713,-12466.659140993,-3410.84102488098,1673.43561794394,8630.68928739471,-1125.79088130436,-7081.88494509314,5420.08752024214,2012.496343647,-8657.80413750426,-4946.26076197217,1478.77139863057,13070.8169568453,705.421509062933
"1",329.157429833619,1665.68581542678,-8626.52990705309,-7675.86401655715,1391.56547102184,-9618.32966357558,-7360.22425283525,1430.47553862986,-9747.07961553118,-6431.86004717947,1824.72491467536,-9165.06186461093,-5025.56777499078,2187.67867816361,-7726.94970793626,-3449.91491868734,2763.49129205761,-5781.56058508899,126.025672136506,3566.18277159538,-2483.12153697919,5039.7658840948,4336.09403530273,739.921881587343,9593.51170192951,4291.83052538699,2011.74064643982,10039.9589561977,3452.37683782981,2378.56893611767,8898.34105646798,2189.78417720781
"1",6944.55721152562,-4342.13979991721,-1878.47813255256,1959.2224489266,3224.60788624256,704.318719044698,1933.59797668937,5849.71750473223,1437.03883634834,-2396.62770504278,2071.76868583647,1390.53590619701,-6278.57194204853,-1379.93502561218,1341.8237332594,-5725.75291398238,-2202.83268303964,1951.24920636974,2453.56371369345,380.009017068846,1831.56039341088,6343.05976105217,1628.96376842088,-4514.72411349735,878.283395912613,1301.81572480412,-7649.56991819587,-2241.0359613431,1707.63436073376,240.020091537743,161.602913281239,2264.46057302027
"1",1115.13027767128,377.42510190431,2393.09015277411,2721.42311816882,-260.706847473236,2208.22671700015,2237.432589156,-646.732120370943,2273.17621853117,2117.99168364716,-791.01701162605,2344.72566024642,2369.68522799911,-654.669748265215,2467.08400819751,3282.52615012275,-157.111776780713,2354.30138978895,2899.5869640622,-211.450670664274,2283.96356749727,3574.44915829541,525.146272948821,2283.02857161041,3933.64588805011,561.414717533496,2445.79108647571,4093.94753537106,590.65739733364,2407.68096932066,4025.92649465344,654.94741364371
"1",1886.34386229037,-4616.92180224117,-513.918773378889,1436.46639708413,4990.68289141328,3807.37638307657,840.483794983971,-3545.91072883138,-4284.08012534021,741.616171676723,1632.87521446763,-38.118546012056,-3141.0622350631,-291.230958724133,465.636218108768,3747.72219728354,4227.53276080008,1111.4245000753,-4447.95486740509,-6593.41771896727,-35.2018561826368,1597.57786027405,2580.05994301136,-49.7262949877792,75.1466178991906,-571.811628736678,2173.36214301754,3539.43583632371,1229.10542290141,-4598.33086380806,-6389.16030272107,-375.672233331569
"1",765.302962279584,1954.16740074703,8028.37349487923,5789.83729917509,-92.1420979217644,1079.1105033156,7214.53850970818,7890.17855380402,253.754368694945,-1004.48456390209,3399.55466203034,7445.80698830031,641.993569286337,-3279.50310178911,-1313.52689049006,5635.04721311542,999.499653309345,-4971.34111988348,-5648.01252154711,3419.66746089269,1329.15352467091,-6184.2245931709,-8717.34815220793,1578.29766388125,1524.42445060501,-6823.85675059947,-10342.7080035958,615.107536954622,1779.0214682715,-7157.11867354297,-11465.6116817551,-233.188106640703
"1",-95.5561823936657,3131.37818317796,-789.836203872954,-192.081102720692,-749.785594784627,3408.76897791129,-1767.34923070566,-194.010052803295,-466.944946607438,2415.11159765434,-2404.12411236721,-242.395576010815,13.7078880454469,1403.47827865082,-2549.75614148338,-183.556067387433,234.517186066592,742.431515751617,-2314.25549525322,-266.897037896172,316.454634012781,787.396784963807,-2209.40834279649,-163.887458964453,585.367315434386,-649.522760071072,-1245.00887738237,-62.951660832098,564.339446905283,-1837.95726916299,-291.43132613069,96.2061940160794
"1",-1595.82648270029,1441.58333935792,-11626.1733917291,-3135.79437263304,-12702.9993705799,-6827.40777672272,-7582.01261420232,-7664.73928390221,6045.79136572803,-4174.18217272282,14083.3763971199,-1151.98297134565,17970.4362214652,140.927027333384,20068.3798760585,-3638.72660754223,14358.7089427455,-8122.10922587864,5458.87608014886,-10616.3043016584,-1449.90557879879,-12469.8103990151,-4555.8636632542,-13759.4953953078,-6211.14073839686,-12964.7986658051,-7156.2092739769,-6422.5501848085,-6620.08102896218,3752.61440989956,-4719.5791800356,10349.0964465623
"1",-652.243904269553,7781.91356051845,1260.25519821566,-9886.30153409465,-3462.81094641741,1141.76016444597,12939.7471746437,709.756036718347,-12545.0973090143,-2321.37655432187,1675.65605436031,12015.8803881868,124.854782383753,-11555.7325249534,-1593.95707416418,1678.28745199438,10772.1719283318,44.4713737107985,-11685.3811232879,-626.286789641221,1995.88427343197,9964.50841244562,-458.52432219642,-10972.1344642122,610.294260629032,1901.7655297351,7527.9279205536,-1286.7283063772,-8196.35783880167,3306.93332639188,1836.68400469627,1153.77819848693
"1",5459.29547057245,10385.5175561004,734.27523978089,-6860.95747345322,3157.88976514096,1266.2369793389,-10188.3733593679,-1159.90394856214,1750.78989216187,-8621.75281497954,-2853.93601617136,1972.75982197763,3868.75222567976,-1321.60954526618,2009.72664068865,10373.2070897427,-80.184817791795,-2402.94723429866,7811.34694024954,1213.62426270721,-9332.64895700357,401.502843638888,1696.17592041531,-12140.3542704842,-2720.57089072482,2029.64157885912,1337.23837060892,-1675.65961310851,2010.75823205657,9581.19276768281,95.2789278891663,-3066.13584967202
"1",-1923.64032939251,-1868.82029028737,69.6173689874037,5239.88088793795,-4372.71407603351,451.420322745236,2632.71679160589,-5262.82978393641,615.048509548859,-2907.7262457091,-4752.24645306754,303.068479819148,-7498.91263034449,-2794.93994669797,281.474488628881,-6960.30136282849,-1250.08403159173,328.243198849731,-6502.3666063981,1644.88107586889,401.425846339823,-5841.24971364807,4904.67995463106,392.876964739786,-4879.23013689257,6274.63287155131,638.867615848682,-4958.84354506465,5567.2455264863,780.196537130469,-5342.20377647228,4961.65572734425
"1",5113.03285287946,755.915795420306,-6523.91265962852,1081.2099799628,820.34583553174,1645.90420581328,-3052.62574378095,-1871.15274616597,6999.21683394103,425.666996657624,-7865.70805626083,138.036916957937,1079.03973009616,2829.57580406041,-2670.27134439144,-3022.17689604722,5897.94455538749,896.857203948079,-7371.86790421125,-1210.80388450704,915.398000645499,3812.97920184241,-2327.46367511592,-4844.10196469037,4649.39826939047,1078.2204573646,-2117.16593260425,-2856.81518020253,666.604262358473,6201.24792554285,-1594.93147808046,-4056.30841556965
"1",-6658.13663252692,56.3769750871108,1397.69805952059,1656.73462791944,-3499.32777360856,857.96583588271,6883.83710922444,-3166.73687012777,-1881.60625251293,8244.2243338518,-827.544012611755,-5474.16348909024,5812.24023997052,1242.73666309906,-8683.76809547975,2374.11834286178,1716.02196414788,-2326.54211129592,-2436.62534034584,928.712930563523,3426.32642145916,-3992.44763973098,-1340.83207569759,8424.66060589836,-737.164694314601,-6393.51934707863,5105.84720284514,1697.76445066562,-6871.74180048972,-586.382781509855,1262.71001746835,2441.80564017627
"1",6436.2443110154,-831.192908895884,4895.61211620995,-3029.03945441444,-6783.13048400516,4113.26485934282,1027.36255102707,5238.748344541,-2475.39010597779,-7500.59676641294,3167.44841271391,967.368192824512,6132.43534832893,-2636.83017581351,-7265.02627276602,3692.88142580899,868.2547859501,5017.57260557191,-2767.35010672303,-6960.76350681776,3815.46208640353,1003.55757367724,4931.00144792113,-2861.62838980551,-6698.95820819351,4661.88035385362,961.816845439701,3392.70100096352,-3368.60771292795,-6382.02110236564,5160.35037276675,1063.64014490218
"1",-765.197470674424,1825.55818735665,6075.58344692972,-2752.42548531479,1670.20958561621,-2654.49329477786,-4553.88884376941,1099.87530930552,-8503.1032536968,-2101.08021182596,1149.35025580072,-6893.02522405053,2356.09529262799,1364.60445189205,-3131.65328898715,7263.62153209872,1079.57347387169,987.935197254325,9442.5479405944,-558.536176095189,1523.84578873517,5392.41612472608,-2792.87480083665,1342.068162818,-2120.22014692827,-4309.11652707527,1135.48035378837,-8433.73254880711,-2287.36726115543,1019.93976675343,-6930.09062571252,1690.78973481279
"1",-3788.50470896496,1694.85236775102,-2773.84299671174,24.9002769267695,4676.67427502321,-854.601881627223,5525.08588117947,5098.31829695521,912.434761807884,8263.63112206428,3289.80645607493,852.847163946878,6625.72299701389,-1071.65263921741,667.568465169138,3504.85643098277,-4989.10116967254,473.864155289968,-2988.2593821828,-7815.55451428435,743.441700525152,-4221.89169384731,-5657.08036449599,2519.70351918118,-1930.33104040639,3518.92989214364,5276.07177991609,1056.24885124922,7931.92458968891,1839.75122177915,925.340185879508,4214.0462063655
"1",-3912.35997134487,2726.66802270904,1504.36533683713,4175.90422860995,-6223.13191157429,1102.30754513983,-8151.27298326899,-7891.34308272457,1352.90251444664,-8204.14960058051,-3569.43542571045,2189.37255291224,-6628.09057768511,1060.73550748943,2779.46975948089,739.223620723248,11540.989484344,2102.35232498942,1781.56716979079,5438.00232904809,-4704.26886398985,916.593251278758,-7109.17905694329,-6602.6552010073,431.737541821748,-3972.33885897124,4262.82701121596,2959.19628441043,1305.72862932881,6154.79140300234,-3355.92800196222,782.281467002455
"1",4649.69883041969,-8330.90582322854,1268.05750446089,573.799334869775,533.974143775132,-3427.19156919566,-779.571356886807,214.878190176637,888.761537000993,-7670.21793074942,3032.45637306813,486.200708138912,836.442143662088,-7389.25093013882,2111.98180621697,404.240485263507,581.050309808918,1497.14189839835,-3133.9937254027,-465.141991925333,754.10662626149,-275.992606636276,-2390.84013164621,-371.680665896187,866.087263375832,-705.562844844747,-1887.59093020782,-93.9860054832378,382.460635486193,1210.20704764806,-2974.28752588258,-153.398263033245
"1",-1225.78550404391,5107.71511490411,1341.72056135221,919.700069672628,2836.23763814005,-308.797692629067,885.036794009616,438.809532996932,-1112.87471205521,719.282075205853,973.893265331614,-904.574201206052,861.954817444245,4088.15987409356,799.81536374058,920.619363668605,5853.12661008786,2252.29555314243,-2583.29773331954,162.225970854016,1326.32600463279,-5227.34811531135,-2615.87590627811,630.313738645381,3590.71455905903,1269.3974503394,-2635.0404395139,598.486753881132,1513.27834613913,-5341.78995680483,-2849.8075342046,616.258121366991
"1",-2532.66026294367,5100.54666724238,-141.10849518946,1066.10144980567,6083.22056845385,-1607.96184874714,355.570452293788,-71.6064697052314,-1830.08161330594,363.081253764262,-4875.98317871571,119.620399961932,176.86373008123,-3327.18041652601,3432.2579629548,133.134983324427,-2674.90148926887,4707.18451675555,-206.862669129305,449.01178806552,5813.18512708006,-1124.39959316697,64.4180267905793,556.972332371411,-1957.60317715793,352.631198106906,-3116.05846092322,-327.490111378695,44.7602570841855,-3620.28738227707,3323.97588234153,-67.7669193337275
"1",5252.65801336166,-8864.17887459165,7470.19662118359,1139.73022145874,-4166.85034826198,-3490.28620976965,-604.103073363714,3190.75082428566,-7486.674907382,-2123.89208332711,11960.5795003713,-2508.7054178509,-5667.52560432605,10431.4112583245,1287.82390723406,-7513.49333472064,3218.72449206604,843.021017467211,-983.093936739026,-6106.99859178298,-1058.18573483878,6280.95826032207,-6831.47146375473,-4885.16383387124,12057.9529063888,-63.7597906705677,-6267.45538420869,8658.03209602734,1390.17912336483,-7781.65946384481,771.678019772481,508.563542359683
"1",-2923.82155662374,2747.40322715195,-13178.5157640327,3769.86760522553,586.558188699525,1891.23579436919,12374.9404428842,-3578.33169402844,1878.78708743727,-11569.7490426499,-2370.46594262576,1289.88403196588,-9541.77938040054,7579.76768667615,441.716282761015,2117.90370173564,8766.2762579075,-4381.2928621931,1497.90784138087,-14604.3324875922,762.271734431851,754.506287306554,-2022.78740821663,13235.2441442773,-1223.45303270411,2145.79852017859,3817.55933151428,-4434.57933323765,1233.14356133261,-13128.752430141,3810.17577553587,665.703630865766
"1",-1072.27944455569,-1111.28202072109,-2569.59371081236,-1235.69840771747,321.436196335463,-5123.90536470016,-1051.20616827357,3429.96782031528,-4104.02502696136,-874.805128829399,4847.82677520341,-3586.59322712228,-1279.2982372075,6231.30080346961,-1888.89135542277,-1369.02996288087,8101.7659967212,-448.725258148873,-995.1441580784,7449.3802445872,-120.035275675762,-1865.21283710102,5120.13649677334,94.5577164849274,-2291.69863371603,1507.76513763962,-722.082528900467,-833.698907054225,-4165.76560147966,-1347.37052463278,3335.5103713659,-4759.23167093816
"1",-928.829743140351,-292.036583416948,-2394.25597046354,-1304.03202336805,1198.75288772085,-3025.94949485473,-837.332591195051,3920.03310510174,-183.419813014737,-1158.47849620891,2570.76175242451,-45.7418886030906,-130.287002271782,-3283.16949405155,-810.137589672952,4288.35263153703,-1546.69596494464,-685.438738942164,4115.76327694326,129.336345232136,-286.732308431344,-2995.13089088972,-1015.4480938968,4684.38072215512,-339.810152531922,-1137.61849834062,-1582.77316359967,-423.888620703679,3504.89086338492,-1256.50443643252,-1161.16847588917,1943.01403478648
"1",1304.6328574796,-2679.62563347963,-215.962882630086,-1.74388001772519,4193.16786686051,-929.949678835316,149.60399068016,-2365.17180558406,1632.26438652028,725.083516750254,490.397143159393,-889.677646217881,-460.122767331225,-130.227285322299,371.954645696528,1819.2492665414,-2079.02012431473,-241.405426068578,-2163.84675104083,3138.95794001147,444.096902537637,311.578228087932,-3718.55193377225,-160.377260239525,343.746403598449,585.47820469086,1551.71011073238,-2014.60417789681,-121.30644068216,-1419.56366217865,2282.67015033001,367.749834326674
"1",-1039.2745681696,-682.969840848548,7495.44714692128,-35.4188986698389,-1426.12733352775,2392.80541155538,152.350113968417,-1462.86894160514,-5171.7995290425,-1407.25682151088,3723.4696548217,-4005.66420834065,-1180.29837488435,9338.91748629873,-183.778075269901,-1908.67782985526,6862.04159181381,454.059377056652,-1751.00973301457,3321.771125007,-23.879435864279,-4178.81320912654,-1501.51237119882,-432.784766184279,-1700.76923054491,-4158.44426106458,-987.306439395991,1932.06216195345,-3632.51289286538,139.833214405435,7443.00799105315,-570.166990096103
"1",-4826.51572503751,-4276.00961810643,3794.15616958243,704.317446208863,-2037.19812593024,8420.34945727178,-356.501733942153,-486.229331978614,10231.9022900732,-648.279664536794,502.956020797627,11344.1285255138,-1147.71163523064,1190.39531935525,8727.01119977564,-2508.76346058858,1483.70636786181,4354.92920622621,-3381.18434240581,1310.59556807321,-3036.92098666716,-3437.43742979975,830.348744181935,-8765.34437908229,-2186.23693217331,821.641157546023,-7306.49082956209,1275.6199312326,1330.89728988928,-9380.18975805807,920.185698598913,284.846277075996
"1",-2598.80124761067,9246.02517567728,-6880.26262725236,-226.414791395818,3357.13013424462,-4147.13755060124,-5076.09860823267,291.4651547139,3546.02816905866,-9674.07582569368,-3764.84158073511,646.70631889444,3212.40296351973,-22471.2195452112,1073.19502785107,754.262616831093,2986.71724949037,-24120.935028277,5679.27009905441,1106.01806590334,2343.46961910774,-15538.0796199515,13634.8756882367,-155.883031147304,282.917557460005,238.281298362209,20769.724708317,-4180.79766788033,-250.998890742034,2402.77558697496,20118.5518611718,-5702.56528554825
"1",-4288.69855532229,1740.80598481279,-4261.46783210175,10296.1308726671,528.51304085846,3192.22257463994,1324.15705317983,-2522.09691952976,1498.11951055675,-12067.2131749033,3448.75745915235,516.994090065523,3188.54220085108,6034.6583613434,-2113.97776402256,1921.07933371595,-13279.2365604239,1728.01539402259,441.128848842561,2652.27806012385,8708.68843088762,-1424.90161108415,2092.7821085797,-14290.4017384942,1124.03611427504,339.990786430472,2777.77580599847,10916.4558323009,-1641.09556381175,2571.57554165191,-15985.8969272994,74.2228049741908
"1",-2256.65286493287,5834.02995872478,1105.69367718652,-2285.71361509032,8472.90221017775,-1404.89143090631,-3642.52584008064,8112.54997045511,-503.132807305276,-7010.35321624966,6748.3804689774,311.225805049268,282.305066656716,9843.78531494972,-3125.55360406097,1038.97900396779,479.90568972841,-2906.99278768024,609.33120856309,-7328.40972115727,5262.9045603615,749.741390917097,832.515209107319,8638.37729502451,-3406.49241956654,907.741263087099,-10568.8845128927,2556.23112397472,775.811587581786,1186.68900754214,4762.47126455066,-4709.89703943363
"1",5490.01332391465,-1823.44883596392,-414.166929217452,8944.21123179034,-2786.53224347019,-4023.96491255653,7062.54886419539,-126.206504964124,-7084.14760409149,7486.79360270905,1710.49169711529,-9486.75092727341,7117.71147530846,2099.14522995238,-11060.6006279251,4439.05922956215,1786.46076014577,-5096.72567627928,857.433987999252,1057.09867136846,27.5534248875268,-3466.73370035186,812.931662116262,2976.48936461126,-5348.57454753626,928.541570960326,4191.65128036257,-4858.82953888165,-548.689840565962,7417.14858856468,-2300.8971764385,-3707.75376067533
"1",-770.541230736056,947.499599254996,-700.796883345842,-1512.78415213612,-1546.50234796191,475.014118005652,3549.35080919779,-915.576308136496,-2563.93190304554,-1168.32881650154,1301.42214685476,4096.8636245731,168.371487687149,-3301.80268248571,-1797.46777067516,843.533741791607,4787.51625229941,-543.806895609846,-3674.4179618768,-1593.65211244643,911.006221319972,4218.92604943726,-63.3865233999788,-3685.17820915063,-1592.5495327349,794.502485456009,4358.52645479066,-428.329574554264,-3872.51420974142,-1116.21823170866,410.733254360817,2896.25302918818
"1",3328.84695848175,2912.77983178724,-599.276077264813,2539.67749049486,4112.17995025324,65.5286655521683,-2261.22719451293,-1107.11819185363,-654.610852251539,-2235.39598533438,-3196.886363344,-931.557795697762,-1663.18715728241,-2898.74277256936,-1695.36238219724,-2395.0347118351,-2897.12985020483,464.670867531343,2501.5438729716,-1550.11017420557,1205.25609379426,5144.19327448812,-393.394114261772,1149.86162656268,4470.10338284266,-90.0347912794074,1690.35632641424,1606.34469461216,-610.341691495102,-3135.5459415705,-3746.05777383958,-936.152770864122
"1",199.004006350994,698.409039788343,5721.03733731699,-249.69507229764,-489.163540311679,-2711.02332619474,-1733.02973846022,536.202121488036,-2219.97862571365,1363.21928258406,4433.4221844923,-715.051234426808,-735.093988432819,-3689.09887382994,-765.03979848479,4023.38836008791,-1423.48699755843,2494.92497760489,2921.86349307947,-542.659915240468,-984.56868052178,-4457.58921250757,-335.692804448562,5626.84836500598,-859.862854581405,288.95123824147,-572.252729155393,-1795.15112133645,-48.7733485593038,-3442.43304721114,918.300032341082,5226.005566316
"1",981.1684916756,-9049.3727241786,-2624.82872947334,-1225.46919365606,4626.77444865869,9999.82503802944,-644.785023597918,79.4063738609544,-4308.67470382504,-5428.52315080985,-826.209286991744,-2682.05876336908,6219.15087028704,-1061.16983863935,-1253.74881922196,6254.88649958105,327.420323034814,-727.027927157091,-1072.1755381028,7652.16554476348,-930.530085279086,3417.38032340427,3266.02183130712,-3849.91279347393,-997.409265583602,-7061.46179543488,-2500.05181245897,-1382.36212064705,4905.34601753121,10120.4302978406,-829.72897025329,1417.17416104276
"1",-1576.67873239126,9280.29104915811,-2120.75529826321,-56.0847725875817,-3201.37507145306,-7023.97484681994,46.2467739573196,-6388.66754259261,1128.0949087968,-548.311510470873,759.157499228742,11689.4808536391,-653.293837433282,524.253502026142,-1989.84416133999,-6331.53337741826,198.589560520556,-6220.97317910424,1021.0681326838,-214.761521055103,23.5583387420649,11184.8680352762,-735.299887077544,860.916447233083,936.582143013795,-6128.05279898853,109.528559151644,-6282.00022022803,-423.825476037012,-616.55598705582,929.585666638571,12085.3199839976
"1",4523.81675821103,-227.929833747889,-3840.9483390819,4696.05044615083,-567.363493430602,2790.63542063084,7009.5581327663,-2132.15949885109,-473.703073867372,-6078.4863307511,-3947.41205193457,-752.037279779279,1469.53530851864,8360.93108897573,-586.460896283272,2124.62137810488,1146.52251010283,-5496.02021702199,-479.537143204887,-6342.23775952634,-208.449795812285,-813.234401701513,3274.15239186395,11849.395576905,-909.660904109404,-600.575844739629,-5388.40288740285,-7022.54202384245,-913.499669362011,-4031.83078484807,6137.12615561056,-658.268223801157
"1",5581.6816392998,-3412.82855275372,344.691516334103,6861.4162626053,-2257.80961186636,786.91753549997,5971.73060144686,-3740.8194860855,653.390031639762,5094.992810521,-3887.97999780362,949.234115194372,4997.1795895668,-3568.83848396568,768.736112684322,4618.85317354339,-2947.66052872005,660.330880434769,5040.83136081536,-3357.29725743284,1205.28537271448,4886.52735219365,-3119.30471380887,644.80033494422,5254.8453156032,-3382.4651606124,586.060898878791,5349.33337839664,-3378.45924266832,562.836175279794,5007.36449074595,-3646.68530980459
"1",1992.87689401423,1047.12934399134,-85.6714783593206,76.5671516943626,4595.61532605425,-1563.63003927538,437.615324893681,-3563.1654243119,537.647461611872,105.058046019618,-1211.10191592461,4292.41009720998,-1058.46138020232,630.049963928727,-2874.71550709347,68.5250915400713,16.6009594543436,-615.639657508319,4611.22672081298,-1309.48716318039,339.718839982031,-3866.25776233881,754.308481795929,41.3810685186902,-227.718252629788,4508.02010849678,-1505.30140128446,540.573966257891,-3710.66442439119,461.962180681682,82.6422502803331,-1181.97783908904
"1",-1096.86029196882,-2138.02485830749,-1068.94790112246,3277.62315658518,-3827.85383218764,3851.09592423331,-2992.06542814349,-1014.06883341649,3398.04582928208,-3717.03138663513,3467.38140644386,-2843.55903337502,-1255.9364412887,3689.38250167179,-4207.47306323059,3315.86693575083,-2573.88217036199,-1332.93744944126,3862.82581803193,-4413.45274513411,3083.17107682754,-2626.0788138128,-1323.2048148908,3989.95134311661,-4070.39766655795,3050.3359005757,-2550.69749517299,-1168.24433691237,3457.13777550343,-4056.81132077079,3576.64222653409,-2893.32550009813
"1",-357.433206778423,1503.12344496918,1090.03518134392,3906.31753890971,2762.06670670509,-1992.44159966853,-2489.9389926387,1408.89221094994,-4508.34409852237,-4071.25067193178,885.509759892869,2547.19921953492,1418.73937015215,1195.56733828448,4197.90199024521,2575.3100404974,-2079.71637135379,-2070.40308943095,1197.25718980292,-3674.00545781905,-3947.6086378698,445.326313215683,2726.81546415815,1408.56124299271,648.224935004748,3244.24337520953,2647.8551556177,-2908.24271326478,-4004.1578438574,632.591343887159,-1465.80096234311,-1144.75755092449
"1",3468.51262587981,1400.06308950319,-6176.07506480475,-6736.18135797688,1926.44207259735,935.622690266928,5719.9538356797,-6156.77506269905,526.93806739496,-1533.55471011802,6632.79343144556,2914.89633514235,1108.33421985812,-6000.70275110493,-5222.8850438167,2254.21393425164,847.679981459341,5368.15923281357,-5723.4831423196,478.329861809145,-1310.53175542138,6756.69050220799,2647.74154387955,1004.35689520839,-5337.00046462913,-3616.5907680635,2886.47923792695,1001.75280467013,-22.0545466069974,-8472.22751295717,738.303999146603,763.066071839149
"1",-6783.88363646383,4146.02289787185,265.075351323178,-5067.52500279849,5133.43507698737,810.728374390092,-6939.64767166385,2628.05891439639,1110.52735364278,-8928.61237968033,-670.807937195504,1015.84155008878,-7456.78001298113,-2812.63112274691,1061.2474838216,-1710.29605200822,-3109.24417971305,859.950173028298,2439.41142348712,-3227.95133767549,656.816018758453,7263.62551602936,-2151.72128280485,-1594.04411927625,9848.88239524746,-6.08377982430279,-5937.53783255587,5422.03491581239,970.752846589132,-7501.10120208474,1552.2437220023,1146.4579172348
"1",-88.5198922283383,837.073371020885,2192.25130356972,3405.73611100636,-470.608898564313,-460.159578290164,-2131.98230488877,3760.26195360752,-101.500672713181,-991.272352450649,-4316.5392288547,-474.443313222403,-811.473694788926,2121.91232127902,616.502428312121,-1839.82169926807,-243.61227344663,2291.61716806475,4584.16134527997,-446.64650994462,-456.661838278916,-2569.3265350619,2599.7704389713,-531.245534334202,-210.104085835839,-2821.28652863244,-1410.33865212941,-737.242959235057,1853.08599607737,1436.92169767607,-1759.30928974035,-154.609875349291
"1",-365.988304789143,298.314087851662,-4920.81002422282,6907.09812159998,256.207057435621,-4101.36269188914,-2133.91383985465,-429.985800883905,2130.83307073261,-5175.27577716583,-757.982265153026,8964.63768437438,-2738.72725760679,-3432.99610362625,7789.25810342319,334.451712990088,-4963.62387248529,3501.83249848186,80.9128317120577,-2263.82184776708,-3383.5192550643,-569.259921112485,2925.08159451027,-4745.01857667182,-966.337131556186,9782.43568335182,-2319.64354278048,-3586.37763629025,7761.14719435128,303.476203305649,-4726.99389467578,2813.11173454659
"1",-1126.37885999366,1384.91774436174,1195.14801614866,-5986.80672844996,-3585.40562085211,-17.1598554964417,599.182316346258,5114.98714677822,-791.598106594151,893.215891197326,-4502.10480646888,617.455861682244,939.455666975771,760.880146038641,2762.65426971307,-2115.56350969174,686.226719893736,-3794.74443011934,1000.72177468286,1279.60188132625,862.253370018477,2262.65884239195,-2668.80128268633,599.457960739755,-3750.11712748189,1827.72335913718,1262.42194677207,919.931103943274,3151.63941566666,-1805.59563774247,865.354241444709,-5223.71256716941
"1",1937.37202294781,-789.554406776112,1948.9756956271,-1380.20649048243,1169.91122704683,-43.8826445194187,663.553542824618,-414.60850065976,2910.30749115807,416.079661186419,-1860.02692793817,414.792770184644,307.481347564,-212.637676106214,-1541.81447503592,982.378347760064,-1865.66672531453,-710.116406978013,-643.663191367845,2702.47524737107,-3282.05536618846,185.818919030806,633.733313839283,1789.75736958382,-1217.8411518598,2040.76984383675,109.434498971705,-19.9940824497636,462.64739512796,3723.599847162,157.144521078139,-2798.64788108595
"1",-6597.13358468162,-8746.444945356,7842.46184994301,16.5571868015474,-8922.53372777838,2173.78833193631,506.901972260145,2275.56993301437,-3350.64608158172,-3032.55697989416,8973.43215662877,-1973.02654854651,-6657.65480842608,7831.63378576512,-442.019386979445,-8415.52674670739,5797.36790699233,473.04784440829,-7779.5285401375,1549.32262244756,734.561158405683,-2504.10340525677,-1124.45096640197,401.97768691986,4373.01126742204,-4147.51316802647,-4821.6691036765,8288.78439580106,-1232.13159234983,-7176.21269430716,7521.38859635857,-124.420962725114
"1",-6732.30517327549,1558.63349824616,2694.1377596819,371.794800394722,-1993.17044559932,-584.495855804496,-1018.02363067478,1991.81879778285,729.13541844084,1359.33203664946,-305.991928249566,-3432.85115515109,129.59257449,299.976347752585,3199.51444888609,99.8605010839689,-2245.07810442778,-825.285855401719,-594.459113699043,2492.36898775871,758.7772808664,-456.005262341643,-324.881204386519,-2888.92298870685,1226.18437462575,465.322390612116,2619.42766831771,83.1093544274485,-2364.08220684628,-548.123195940635,-304.432023300281,2245.18160469742
"1",6758.22612295653,3413.86487195056,523.71435855636,-2088.02967584043,-333.206175608707,-9868.20909494,196.198044390365,-5539.32244831084,3218.46909375072,695.179756194974,6716.11518097409,1380.0274475381,1909.50567319667,206.778019370093,-4227.10770299864,-301.328090725473,-8064.87591821048,1268.07939452438,-4348.16546556016,3896.84277019248,2003.80560226552,7524.73376136555,1336.01064965071,605.817308913521,-42.4111626016733,-7107.21294460717,-482.103821149672,-6458.05957836511,2693.18233561667,-2363.54988861804,5364.19227075486,1975.04033968828
"1",-8900.97578494424,3228.0044532327,1763.22629703519,-6974.28085173965,-4527.73298010913,1481.5932816215,17070.0485353211,-400.00629111514,-11731.0049235877,1999.63821091705,1546.14787551324,190.544792350684,-3335.60919682486,247.804733920934,13749.044770557,900.744075618077,-11224.5574635332,788.733681259767,1994.89793651769,4256.72680999829,-3206.02228301287,-4066.32334633484,13691.3597530046,1165.16274897832,-16321.4784874025,-2493.46918140378,1571.56649722047,11060.9726203783,-2070.87965933727,-9140.49372753471,6719.74120170018,1519.20071257768
"1",-4430.13296113575,-7343.00474842473,1547.41461161805,744.62481865248,2696.39689845628,1509.31226984497,-276.813106144305,-305.739582493915,-1216.30022005908,4957.17651538417,-1001.92039689058,-6356.65945199129,3179.81562458042,796.389414637946,96.1815678442015,112.184492089148,-1070.64050800814,5351.08508799236,-678.36883111354,-7464.10331753687,2264.91842042248,805.998691870915,2995.30955551114,-977.204614802753,-4850.9176041018,3075.22598457494,374.991878206977,-900.796203198793,258.50011772969,-131.207195443374,6200.16677609816,-988.555532811315
"1",-472.670434690541,-428.31158199857,132.332511600654,1976.45117780954,-6613.07854602951,-470.981036295642,39.7634990730992,864.637835363313,-2671.80405125824,2524.4370034173,-430.156720335508,96.151565170115,1444.93762674525,822.311237623195,-41.0693718138368,143.834297015866,1228.9608575836,-5340.29558385074,1107.20610856795,-608.191892445945,75.501267403215,1506.09321811585,2109.84312460877,170.255441671267,222.791987209499,1253.55592487907,-5389.00804246857,57.9298409769357,-296.191819599314,55.7165833927687,1315.79224815891,3819.86106094818
"1",2813.95279273371,1380.33198818605,356.104285858704,734.142984631544,3355.81043179319,-3308.58040477561,211.064045753226,-5071.22778538274,4542.80428281917,427.421703165492,892.918326137434,1117.95788646656,-2783.38071009942,431.788757562355,-5840.79540957249,3043.38598238561,665.747880119077,-1279.9762100316,6306.70081724349,-1048.77038194379,768.431401622345,-852.5941663953,-2243.55069741154,37.4415863259376,-1387.67125825211,6495.5372893837,-1237.74588666409,643.157625207872,-7535.86422329165,1621.34064977593,346.095017505592,937.482909818638
"1",-793.978029241879,680.196243231746,341.26171687058,-1143.96258854615,1261.49079626359,283.46978822247,-369.213504894712,2056.27908776865,365.211937819831,-762.851774317503,1618.55232358593,435.521851225445,-1235.5656584882,1129.54185029058,304.942110128421,-518.834288835052,2303.51547066299,161.009343113097,505.807374639716,1748.94866609658,25.5106841464325,329.728480642318,-3088.14130274426,-614.857704950941,358.11412339058,-1983.30086218071,5.86061378315729,632.401867411997,-2372.88461360333,-74.4729135884131,503.192233987644,-2433.622350036
"1",18301.0784963107,-12170.2442585906,-1188.36649480698,1373.19207368819,-19594.9330298482,-2701.6949515544,1255.00771235069,-21772.9272548451,-3258.33263676189,1572.68479722114,-15875.4083521076,-1117.89949519732,1866.08334005801,-11283.8789800934,654.177116607029,1825.94724707737,-9107.84288957937,1310.19134531671,1616.0714103317,-7275.12168988819,2108.81288445036,955.852350916114,-3238.13746375102,4329.98881315395,855.356712677885,112.829897876064,7419.17835621978,540.590691151494,3881.92044145948,11928.2558353378,411.617692656616,7505.05998648007
"1",869.729253418267,1473.08228009118,-142.28075778895,277.483160788891,-630.778873322326,-915.64258794819,934.722835857085,293.580743076017,-1345.30377597259,926.654517145533,-180.839512077743,656.712648458734,-1116.37579387141,-1070.54767645104,1491.23336188755,-245.915334027107,119.75342917965,-245.974358089239,-692.116351839231,889.528822433171,-648.041415426854,-1277.06878962621,1566.75892571134,213.45516635011,196.754945426303,-817.545102640401,-606.454113928909,1124.26962803136,170.081673167618,-68.0724968245018,192.115283021873,-911.175596550679
"1",6505.08348942131,-745.198997182713,-3873.43475577114,1137.05502863755,-940.859778708065,-1202.74682862119,1984.68508514078,-951.11950843073,-150.608199115595,3383.00647341533,-761.480095995341,196.139742047488,3421.51168282963,-858.026754852555,627.624369106775,3754.42341233586,-829.121109986149,1744.12232382974,4176.25375847365,-832.932575827469,3221.10344241708,3839.99037379825,-804.699949998368,4361.22805998551,4169.47221716023,-900.798564447193,4476.85939528325,2980.40403002368,5378.01448525322,3029.79594971079,26.0878544835326,-1065.44174777396
"1",-1871.38283697732,1439.42585243732,6119.30432297426,-3667.24079467853,-1234.80675687086,-129.973129443575,953.340217143577,-1678.98256354047,3102.62176730913,-186.074731992204,809.435830085179,1507.61158291835,-9283.22353703928,6975.10426954622,-235.769310075681,-387.178997591093,-205.901633868027,987.526278932117,2803.224513986,-1846.3760802377,439.194739773162,473.40536880477,221.593109614715,-3259.30301972071,6234.23109659582,-6056.69153843826,-290.204363457392,-286.061264095533,518.548387051505,-9887.90397852674,6148.09315651446,781.992494438337
"1",2159.84039673464,918.381177346546,1559.1222018567,-2932.37169662124,-178.752034085296,1676.1250307381,-15043.8150686018,-49.1862577457315,1098.6850168207,-9130.1376535572,1702.01496901802,792.784954133516,-4451.71881458249,5467.32892944171,166.182898104008,2057.32434662314,12030.8549715215,-333.774017930437,1958.71106935236,5650.86228149194,-14.5416346941548,1424.20589314543,-3829.32929607922,60.4987204043195,1563.50754770329,-14258.0460169148,-405.177633722584,1436.8875854231,-10825.8675695627,1962.5026022596,742.92688210987,-4175.2939629214
"1",-2186.52500229353,-573.608859284936,942.787644740839,7835.85163677835,-614.797534835636,-7001.02684058359,2808.21812886903,1312.49474657317,-415.935806357452,-2419.58859594576,-1208.62945239567,10520.910012838,-235.08185136124,-57.001320441041,1603.02417270076,850.014311152406,-4222.1549552986,14073.9781668046,-3979.33423868783,1158.91570792409,-9162.52090843365,161.197063298623,1403.64005341198,4726.51809047776,-1705.95096725663,-4412.69851200526,7004.87745048567,1559.1327040314,-8750.3768645978,-2648.66500462872,925.624365719902,9026.64485824862
"1",3547.39680561691,562.17454666411,1416.28438788127,-7457.11280798589,3783.00509891582,189.468433538121,-157.255131870921,884.486539639247,4737.91906949201,-2974.22081406853,-322.252223328224,379.658175250608,-2420.95943677916,4054.05233933799,-3458.73859709214,-35.6314161898512,786.50193267967,-6181.92796378005,4310.19991211813,-1227.81671014441,-30.0765167125244,1281.51922449824,592.174170170899,289.645088218915,24.2198944879083,-39.8660740526437,294.330245680573,4218.96206785387,-3477.26799863786,-56.9475243845459,1020.06110878177,-6856.73145573837
"1",653.729196345362,-11017.1034021033,3340.74144022438,-12854.807435219,2027.39793531322,492.587010713595,14015.7587270081,1153.65766975491,12026.7891675683,232.466772949653,1124.63656792843,-3044.54653870064,1048.2191511697,13786.6838667071,-5655.004312545,9806.66355938368,-3916.37761211401,10756.6970561174,1171.07645424692,-10308.6410570572,4302.38138619333,121.955275527184,1124.12570304253,13926.645860358,-2086.86684634238,12861.4742229675,-11642.1675520346,3678.40651242273,2182.58434817542,-1293.46779983022,-1500.78055486083,-12223.771482531
"1",697.514602419426,-618.515832141017,760.153899218779,-1158.59152783673,189.850805804522,-1853.68526687412,-11866.8964881155,3959.84007396275,-9036.42118620467,5107.21163545466,1856.82165137832,7233.27808060492,-2313.2154234379,2043.5706688751,6490.42625248964,-520.165110715938,-637.011218125006,-1135.93059703157,3133.77067210899,-2168.86346585445,-8327.65383477223,4934.15833184789,-9248.95957666304,5039.05512157413,-5201.14321197232,-1610.42490537518,11127.3995085519,-4075.66929813932,12713.2252171137,-5037.9397511098,11005.6080507946,-12294.5867617717
"1",6017.49041464442,1290.63575033977,-10111.2337659264,6955.61183539621,406.708701536798,3123.80931641907,11170.9246966215,-3816.25779051199,2059.5407465786,-3110.49653211842,-2742.44098907202,2499.57015159493,-16646.6439881891,-31.4021431987424,2195.56193442744,-10447.4640938308,6733.48380178738,230.917078794178,3232.33810258561,15542.6250088073,-3566.24312147963,2478.33421411397,8151.93105979791,-4346.12284763191,2744.60491180627,200.776382341706,-2815.9871551861,2165.50504257139,-18496.0129784089,1090.73206871215,2437.85530384758,-12205.0859167697
"1",6958.7054560072,-224.634301123938,-7412.5795351527,2390.93490072433,654.297624944794,1041.35485849616,2460.93161137537,-1914.86561656468,437.833260161421,-3372.86406789425,6363.07692167397,-942.108667891532,956.082597650553,-9136.29597624535,1148.08236593201,1193.63305299601,1322.18545830859,3082.38867716368,-2091.87880787804,-568.937212018692,1443.25917695302,8663.12502937784,-1715.24645954331,821.825995835031,-7623.04038060924,2272.16499543737,669.917983915978,1348.18505632582,-7867.62207078892,-500.455408169675,546.854703158713,1094.27968018663
"1",5086.62352214429,-3133.69640573616,2033.03649879315,-27.5425363071748,577.349630043445,-3083.12781440379,1822.8466960919,155.777908288798,565.701092441824,-2538.20474561701,-318.816985395405,24.9054864423842,85.5659424521702,1279.61121021276,-1252.9852269594,-273.238998030261,607.098988739348,4664.21309826407,-1351.63181669138,328.295015411213,-2498.65514012134,1887.30873480416,6.39614614687907,593.204138270562,-1634.34221888742,-566.99881118072,-52.9119748932674,-31.7743466417589,2289.85934284156,-1474.36822606101,92.3340852206577,-891.905217142859
"1",-378.125240976343,-340.906885615925,-213.544125822244,8806.15257434702,-916.216375394651,596.489448658459,-2345.60110956831,-3170.91475882869,-96.7133992136282,-3602.24478292651,7345.20348664616,137.598016718222,632.408073852468,-1309.43370673597,-3693.65664318449,-1.32712117928497,-3810.10591069306,5014.98996476146,142.041454160593,-219.002969630105,3652.90758486731,-3210.88004653518,437.942149172033,-4926.25784169064,3780.329736782,48.1551189508877,-298.248654884959,4266.75523416414,-3378.15172219894,477.440641579134,-4953.96185393097,2246.57760565181
"1",4824.0005318811,-2664.11748664846,529.249791060765,-6582.61745056356,2719.63660250552,-71.8356980115118,924.605109622488,13070.330498108,-1675.83469576003,943.020395498127,-8828.12325085752,1630.4299527566,46.7142453941954,808.013509489879,1478.9041622356,-4326.45172392984,-102.624136359585,-3555.46736976934,8280.95296203445,30.3197080177559,810.901024655663,-910.46923232916,-4548.90679007729,-46.2773315472698,-4396.5512549782,9843.45632663561,95.5892924363471,1053.77196559755,-5994.21747291773,-3750.16422913391,60.0333235220408,-4730.74610885278
"1",-17423.9794040947,-6012.7884468578,-5825.09724064688,20611.5238362217,2753.92939535572,-20396.7247756142,26.3148788187206,3648.81630576711,4117.8794858769,-7173.34089513145,-3477.75255164557,21534.0213900815,1687.57005283846,-19408.7574477397,2535.28701156197,3953.16010564305,-3316.79166318035,-7980.50648093772,-183.106163482939,21559.7865852964,-35.5622448179616,-16658.643558073,8432.38705384331,4260.75316017122,-12131.2480679286,-7247.57067044643,2158.6088565049,18367.8888444619,-2531.3282104273,-12026.9967185427,14330.8736560892,4168.11411829143
"1",896.69033846695,193.547060676206,345.421501403403,-587.933502740865,-63.5731033346438,-2793.23989585044,805.044153573466,56.7650755931885,-2209.6535045291,1660.56746612693,50.9203866171324,-1839.56167391056,2173.61501207941,-272.969527560277,-676.826427556013,2329.13032860111,-969.936750784013,108.484511868047,-125.397529149819,-370.57851327834,468.55844355914,-2914.03088881428,1705.80761068521,7.7884029488212,-1728.17787768733,1699.14872339859,-810.031613597022,219.739218619192,792.924249038565,-925.707625771373,170.48442510772,-2237.04560532472
"1",4496.32499449305,-11460.6818689945,4538.62013520219,1038.96517222229,-8448.79192252858,5933.99919890139,275.104286824146,-5220.56434398401,7998.23992615619,-455.505388904421,-1690.16397298943,10147.8375239922,-866.32045819792,-667.269269442724,12167.846175761,-1826.56463646649,1699.10987501794,11400.0593185119,-2362.01288644326,1925.27457793343,9698.48899765461,-2290.19720140301,2091.35613617114,6956.79677269581,-2550.86569307576,2129.87886453674,5378.97790035146,-2617.94721308046,2293.34042366993,5007.36346146364,-2737.62849292679,2381.42358263788
"1",-218.949413515711,-559.419666594287,382.800009500631,281.529179402987,185.947589969689,405.339266108834,-13.1479820474109,-25.503248210108,-715.66999756045,206.565267782165,-272.394036893324,-462.441362857761,107.656381895261,447.798442998095,417.300095141445,145.183930391954,549.368154154406,-52.3011790150335,-23.5986044223625,-958.344393585423,114.668907436065,-270.515297468035,-597.228884265989,161.380082155618,512.776841196849,508.941033919672,90.3359878674144,522.786520397447,-107.916779951055,-48.8431100625101,-863.12493411261,114.158173646561
"1",-3644.72190115377,1020.81426458438,17.9290659715757,785.882864552635,7003.33939029014,-2720.6122760391,226.093546883502,-6730.73496350465,1217.97535294216,203.057905417262,208.407643460647,2822.09352826456,-4114.02731117395,-273.20966816631,-2262.10747966804,6812.47576385151,-931.718479935779,490.67283332361,-5498.6577375903,104.991031663193,173.297164069908,-1685.84983702315,6161.02641974954,-788.306347055026,239.783184249249,-143.946806422216,-2965.1618040621,-137.91067233391,-3824.91099996952,5889.96595837537,175.807356245195,676.67625165041
"1",641.550418768678,-1122.27544224625,2874.34634696503,17619.1614770154,-4218.35624405913,3557.48320961845,13322.7421058969,-3341.77184038253,-18265.5469451493,8998.78709214084,5029.06036517922,-3235.02083765821,-6652.92967602933,829.547143573999,20387.7295979684,-2685.40690907084,-697.960606930283,2889.14959257973,-11669.2271584718,370.908536353038,-18655.5985324844,9130.30999160794,4260.94822915323,18259.5779120833,-303.451522030622,-1538.69267250122,-7271.92628319919,-388.439536114038,-581.754940759939,3031.19819322922,7612.30148187432,-3053.94571451523
"1",5990.31741768296,-5378.41660158454,1489.45028193668,2656.79837687483,-13719.4185632193,-3361.59928532933,1656.19403876545,6052.80135712047,563.039210001922,-548.41204885483,8025.55918704656,2698.27086200131,-9085.17726237273,-1219.75387753094,2491.77843191117,-8828.55731530328,-2684.10030490836,1724.76982414901,7142.62779044588,897.91085347076,-1043.87139511847,7201.0399331144,2583.31385481371,-7974.66612815628,-859.401022310338,2540.13409464855,-12713.6448353972,-3207.87157390235,1987.39756463224,-2362.97605604241,-1732.10407624454,1680.51426418066
"1",5855.05557738748,-8.66868309196081,-2926.27263297207,723.608192761672,378.289100986482,-4057.94268159324,404.864794094308,-4843.89776299252,2848.19587126896,767.671910379751,-2189.85633618225,-599.815524164255,263.614496025904,2066.88748053967,-1441.36195629259,-2737.50907028323,4808.84589846392,-145.371052100622,-2251.24676448071,4788.71701510649,-687.731662355942,751.876439103462,-5545.14369649715,660.082857639464,-391.589897014458,586.575944885269,-1596.75207574931,148.350779014118,147.817855232677,1000.51908378061,-1453.67880894301,-1333.078045799
"1",-378.858686578834,1737.1467730692,3567.28189411605,-17888.4126234146,1995.56371204623,2825.32503229448,-13331.9428632248,8931.08411061278,-455.167112299863,-858.28271377889,18106.1618738113,-6407.15838664525,2950.13512927157,6111.12909471008,-4994.52041561343,2855.66304790091,-15975.318257868,1388.69716140269,3589.91338991329,-19029.9952576019,4073.96637016354,1383.08841771761,2574.12943895532,15692.1497541451,-7440.40964000776,2632.44127905982,-10002.6149049976,1063.60724849568,2689.06633661756,-14912.6204520795,10257.6926807654,-1095.81393570524
"1",498.218281115708,-14052.8950318001,14199.9098912929,-4830.40666099865,2831.04042865148,8381.03317434873,-4843.59768108996,2316.80234873643,-21964.9809237236,12725.360342233,-448.680675626689,3400.87364151516,-12996.0568254342,3793.15691008501,2167.14076374217,-1796.14746585124,22253.3517192418,-8595.93085089559,2483.50767661932,3167.60671932525,-1928.63989716236,1166.34341269433,-4905.49722350455,20443.9956076849,-8765.69425050809,2692.67296292694,-27063.8905380809,6822.56490267889,1980.90035714353,3669.72073344788,20047.6791271901,-9336.61151059305
"1",-1004.67446068955,723.559696727143,2130.6647639143,-1336.00339078523,-246.504440740173,-1140.19388847127,3384.99284022962,1088.50837819605,431.945891853064,-1912.1263410432,-2812.41370555635,-200.606105447864,-862.165462592498,3471.12849485079,1024.36145808045,302.08794350643,-1063.06965677024,-2403.50862687913,-242.712314693598,-697.279519429603,4414.20043795274,1091.13647371473,503.538051192612,-3876.98454733367,-693.233338594593,196.263009258632,551.065791740879,121.130712297374,-2418.23691704871,-444.071558580026,768.151437279771,5405.13719767649
"1",-5663.14752849312,2065.80387536669,8446.36532206192,278.148700384092,-2192.44747960484,-1057.38543917457,-6973.60247873125,4009.59466085653,1904.58622175358,7030.64675665919,-922.523778887803,-8478.80585409926,-464.345569479176,-2640.68469487704,6046.43927076881,830.498849490271,2163.55337800156,-1051.41798205753,-8926.89250942984,2254.74791795014,2062.6897770266,9343.58372870798,-531.158228592123,-6742.28364725841,-674.738170294628,-5683.22281402247,4200.63908552899,1509.93462065241,5935.11916419997,-911.100653933991,-8234.15464638235,-220.673710659116
"1",-835.869964401272,263.851264589319,-389.318972931963,-619.110658050214,1655.55642600134,2441.47653787126,-1028.53526313477,426.576235459864,-314.710046272426,-2970.62528433486,867.535552401572,-466.848027057203,-667.441903605629,1357.23895441342,2952.06092187541,-808.997122974983,176.941048704317,1801.7951862336,-35.9753901753235,-722.71938449735,-401.411233401405,-807.234116951069,-4606.89688222356,2680.82548047908,-1336.36958890786,-4713.43062920052,-233.042380592198,-290.771777110984,11.276042020432,2444.55931518302,1104.68608990237,-1076.22456311479
"1",600.564035105888,-2.61295017964733,-2519.2152502967,2364.37346217278,-145.210661957506,4438.43779086686,-216.519438058707,178.122580224863,-1584.06641416827,-3035.23933529119,-51.9706546445571,-2215.140852149,3310.55498622146,-268.275276589699,4091.8194882778,-488.426974266421,1275.94207668447,-1642.79971517468,-4557.40985351601,-1530.97393196377,-3420.79527816955,1999.83692322147,-661.403138036247,6096.05856458136,-99.4040147917812,3180.65813429093,-833.908842659859,-1397.79577360735,-1640.20652964468,-2686.88603484312,488.527419850585,-1741.10147307109
"1",-1994.45220490972,-4425.39863309506,3010.36115602511,441.887282671576,-271.501745526763,1833.14021279523,7306.61081379248,-1443.34241520975,-277.390951815442,772.629531282679,-83.0261192535415,-2332.28580145993,-280.949936830516,611.002209249432,-4817.78490556294,-1424.19905544618,44.6409653787301,158.086215541398,-3584.2873978236,3686.60894907663,447.385714266702,43.3822257482295,-1481.03558286747,5509.83904091914,-25.1345637018181,-267.085112371729,1708.73344554936,7203.68456304365,-1585.20832482935,-184.572862186554,886.142198547829,1149.74693273725
"1",-5021.10349295256,5238.54422394396,1238.83207224441,-5253.89578699691,10882.9171646479,-76.1581420543258,1929.92403971331,17882.2364961368,-3876.82683957383,893.120109215165,7295.88981910746,-4797.84095889889,988.566264597938,-4209.1171503014,-3928.03515879653,1252.6210441616,-15685.7149187004,-1028.71225992845,1671.09393899549,-13867.3487547592,7330.41467272956,1200.68830702924,-6541.70882282447,11396.6700813309,-510.232939005684,1779.5647599161,17114.1169149023,-2996.81687618411,734.438362626004,7585.45791226905,-4011.0750151469,1032.94497114904
"1",11170.9287607817,-2557.06155738326,4974.16663855251,11831.8844103489,-966.673957499607,-9159.44633286512,3904.04613184265,2081.91347282371,-5172.29846156082,-3653.24905763261,2939.86973454726,11459.7393897918,1277.78066851579,-15153.2854272795,-985.708187421144,3633.82040073535,5849.91143716702,-1591.83625008969,-2780.60435519446,8121.73639030631,1787.11491761524,-13949.853933563,-4648.49455952083,5018.93252284848,12618.991825803,4.26508763178677,-10434.5438381269,1446.36453113167,2485.55827284217,-1883.3485469164,-2925.84399861434,1680.36266132679
"1",-15550.9993334672,-916.062486596454,713.203239990351,-5311.10348434979,18880.3460273157,-5746.4566370526,2993.7334114877,-19812.1274271323,2942.44968606339,562.642777158868,1081.38204163848,20530.5837028743,-7201.75155891958,2915.69657562279,-24362.9113512088,8581.26005094331,471.589955153927,3314.62268760522,7332.82086743855,-5205.62927773572,1650.54222178942,-14484.7951606648,12677.3627848233,-2415.82799140261,3162.90342851357,-26518.6347708059,10653.9232742894,25.3573638733269,3584.58454096073,8052.87858251363,-5595.70986654476,1756.63023484973
"1",4120.21119160922,-3025.48649612586,-3531.61061539995,5341.97364540416,793.820658107745,-3586.71134619221,-1604.76999655297,-69.7917094759653,4115.74615568021,-2624.11274813006,-3420.18452284775,5357.80510079646,886.333169055922,-4372.66468785566,-1027.4637055083,227.693259899979,3070.39216379118,-3015.38714529632,-2909.55812781504,5801.37838560442,744.922357598373,-5331.10810273118,414.090949509979,405.731590777311,2336.16339212991,-3458.36420649868,-2232.21058287605,5735.27978983072,709.749134673638,-5083.89499378901,-48.9250409249741,181.776901145267
"1",-2792.77886808236,7786.87139018843,24490.6376086005,2442.54536871973,5233.13515910979,-2067.92658202431,-20316.5525710144,-2256.54679464779,-23810.6789589362,4643.91675754955,-9616.53184312664,17636.4290370619,4462.15885715171,20712.6271138969,480.416325493188,-542.575468210548,-2044.23813891129,-21062.7490468762,-2103.39668399114,-22910.0834374822,6407.34053166089,-6731.07944965978,20180.9700365981,4206.5755344721,18682.6054590134,698.443225152238,1508.44692513978,-1932.77781869294,-22634.434205204,-2302.53123228613,-20941.6519487528,8645.37803957421
"1",-3664.49324183971,5729.3472743283,-8615.22668815674,1994.27849263919,2037.75896455049,-7023.22150076937,-2647.39786676899,950.918765401405,1844.86697479339,-3185.66693815298,1128.30024578457,9951.09817924731,-979.152191388993,-5911.69852721388,6364.6013251517,2488.97353069026,-12671.1519176167,-1194.39287521664,1180.7461917637,3890.47484230661,-2731.69392219234,-457.673977257091,9820.63832419844,1016.99860803849,-7978.97709815556,3762.42200546587,2564.54931265529,-9002.38477923995,-2639.72589725201,853.452549164677,5875.09539332912,-2580.66211026744
"1",452.277234750078,1853.8051121683,1343.20807626377,-5740.11390047598,2190.83057065303,1481.88691859824,-6241.82387787892,1978.69357049815,1320.79808249731,-6649.33735454136,1757.24311179837,1370.66811455085,-6915.00513058229,1457.58890040614,1316.94232456969,-7294.75039556124,1101.47775668198,1183.88667692683,-7236.77749226294,1169.07406359356,1434.46329866552,-8005.77581908933,632.501353458609,1327.52203577621,-7511.84765458516,1271.78744928248,1282.20131181967,-6540.77323313387,1779.42005486348,1123.95514128004,-5799.24663537999,2314.53801200851
"1",-4110.31804248224,2367.77353933862,-2678.46983404385,-679.795040451583,883.741821050954,-5782.56664732182,-1504.24923569197,479.653935303091,1058.23504316735,-341.42114839393,2947.90739992757,6696.48328930786,1250.37397631176,-233.683199193134,1359.69252402585,1865.95971812653,-3408.60090642043,-673.728150924858,985.37575712573,-5143.7244280044,-1412.1534069998,617.836404219452,1529.19915040884,-294.349606236299,2829.09234105048,6209.34533361057,1627.73381477262,-1314.10103511444,22.6777897416284,1605.71850023094,-7971.2010261844,-2209.54915906019
"1",-569.236918922157,-268.181859068515,820.104101940447,7261.53868816847,65.027571593106,-662.125788415593,-4222.47405514596,-2848.09645780299,-583.837147633482,555.612676294269,7064.72289543062,324.720715498195,-865.101749500238,-1547.00341829907,-3499.3180886483,-705.049591492503,-30.8038741730166,3498.73673682429,416.520295465337,941.578775878022,5974.29298329472,-1630.86465536418,-791.102165515321,-2996.82837557537,-3310.31278815272,-607.16783738539,-472.533107830476,5349.54968148835,718.653699157188,312.460039817973,4539.42767812374,-2114.39875273238
"1",-6300.93290278486,3835.34029302642,-319.995869639489,2135.06192056481,2004.05426785261,-1576.91498875741,233.945602408939,-3241.94144248659,5228.82552464857,-924.824792824834,1024.65333639278,-5242.26064986394,652.836727854594,-297.803336954932,1656.06592026389,6621.24359219142,-3625.35405008064,460.610648337279,-6707.68291885409,1793.74493101098,-234.433240978403,1154.61139687321,5129.85676564173,-3148.59406789209,521.117886147277,-7605.00791452624,3106.29372079149,-577.755149182515,2188.95797323005,2088.70467096665,-3962.52213888633,975.514684593218
"1",-1401.99178629132,-62.7379559717533,-745.455020021273,-4173.72031325036,2559.71636764475,-585.529603064688,4799.83698071693,1699.56619446155,-1025.45037690097,-1441.95053782221,-6263.05684990674,551.528278280853,-522.59480961256,2016.9532875175,3361.71530681005,-767.404949498174,3928.61210873475,882.88372897163,-1170.4460550005,-1193.00587349873,-5932.78990068567,1394.64211675807,-465.300615254687,5161.2828278147,3082.79218753875,-917.33683471135,2519.82404124754,-1307.58582605128,-978.029841386649,-935.79763236744,-5623.62671324588,2001.8956535567
"1",-18678.0850879879,-1365.17865396196,2463.66306396278,425.492048606929,-24902.7656688897,-1666.97191948902,-37562.527391204,-26.2267426826814,1787.42738566312,-7125.3830451278,13993.3289357357,6078.82415261037,-11561.8582583216,-13206.3163511235,-1532.60452205675,-9887.98082063968,-12543.4651202388,-14062.9454819768,-20469.8388300156,-1807.84262945993,-3214.61739738727,13119.2726390512,5956.11350693482,14220.4611970086,-9019.22127364982,18427.3437794398,-5416.74513057513,6240.76052431389,-11717.6238160218,-15386.184062174,3931.70454565523,3013.34751143116
"1",-221.904593707214,3057.01887927557,-1167.30788669628,-309.04142012468,33.8366180202201,3373.37628442307,-1242.87938031346,-105.692837885873,27.0127642525087,3292.87156494712,-1129.93367577644,13.1849881806764,-36.5810252168309,3043.86220493051,51.369132446077,70.7970155280588,-417.534957099953,2870.78238211011,282.23149211136,202.403586519094,-892.573154624945,3262.92356229355,134.655924898203,171.274786906137,-180.029710301554,3112.078393378,642.432525074749,56.9898624564423,-925.076847330359,2114.01782679123,761.689093556867,-20.6531474807365
"1",354.544918119278,-440.22706544897,2401.05675453175,-813.303683465581,-999.300954522914,3076.37918457242,-1254.90248462023,-1070.65206739049,1939.25391992361,-673.862399221514,-1352.40895950414,369.13670674719,519.027339577509,-713.696614886307,817.249637637126,-288.752774617558,2898.70236829322,-1555.18950377953,-823.81047587835,3071.65711991408,-1119.04213313597,-1126.86400211501,1500.23917839695,-352.372186858851,-2120.1883812053,-226.143195589482,801.575516852054,-1869.4324287951,-431.128114926917,331.664268221306,-1186.42154455261,-732.608375590085
"1",-650.171824561005,83.1482961978369,-3939.7339465596,891.449726348761,604.170234222538,-52.4621619084852,-1545.07653287467,-819.631637208759,6008.10995001725,-2596.63929054352,3942.74957670726,890.160434099687,16.8945266362062,-966.790154077392,-2381.05149672016,4112.08020672921,891.837458868708,-4676.32978416851,-1253.71778599388,462.430844202563,-5385.47168484638,1340.01784686159,-762.319527130977,5805.079684604,1051.51785395294,-6703.4943541469,-836.021881054704,760.052861332585,-5606.48511134707,74.5774843680677,-6308.65256527009,754.54587400647
"1",4826.79211758365,973.747140840417,6394.88436272867,206.827398543235,-6750.17782498263,443.79791661867,290.707600431132,5796.21028128776,207.361278839091,-4801.63807441377,1428.73599970309,990.725121675626,-4473.53125151528,-1640.69825932845,912.806750927198,4578.10906136558,183.370382944016,208.328654417228,-1344.83044507885,825.555797580404,6149.44151623448,605.240947057253,-5708.29443073376,-1843.84286626456,887.541694698422,5650.37068104194,840.098709674983,-349.275711920854,-515.573657203759,-6422.72320124001,-1222.9210250494,-1240.81981009777
"1",-1046.33179280808,1223.03154146445,2096.66020594287,-1481.55527411885,-275.764333152119,1028.8784573096,8559.15607669121,-1209.04698676784,1022.59012203792,-8168.81793249969,1911.40565053866,29.4410364580982,1496.52066407141,3822.34783987408,-1818.08001086632,-146.781644369754,-338.719312379177,8530.28183648436,-1440.85911250273,1153.69851398418,-7831.99076256452,979.470556569437,-65.2289415038209,1184.04496266189,5994.84110441476,-1750.55216062356,1074.62444647222,-8896.27738835127,615.711954386851,41.3135897480895,750.666100252842,9368.32240135213
"1",-1120.79552706453,14.1592597010536,-2964.29141397428,2155.06985125699,-422.177518061543,-733.140500566524,-2431.22903653469,2648.89897128408,-294.157580918716,-556.118769773677,1286.87449854497,530.67936941874,-449.164898606395,-407.032767237115,3100.48447888162,-574.026648650753,-673.316296443102,-244.324552647012,2082.53430616171,-2954.17295083921,691.946992065135,-535.029429270025,1393.07742851425,-3045.36694384474,558.108116550463,1824.43153979649,-94.5947117804159,-666.335652991069,-929.925265897519,-1665.43950781049,2476.73591083251,-389.707441091145
"1",5312.96193667816,-5163.27184049535,5071.50307409714,-369.391491776888,2411.85116483403,1682.92778661143,-1972.60108907179,-217.175766894974,-4596.4815335552,-276.008360473581,-479.249874272013,-4613.95877663868,5524.20681283534,-258.703017596877,2330.77955350039,2274.36967361259,-2045.94056546665,-352.328765203698,-4961.29927114515,-255.590475758678,-567.915516684256,-668.555683489589,5864.53699909555,-534.186372187722,2584.70341705562,406.478076551156,-2642.31588166789,-430.654053044005,-4571.80864110924,2812.11058990294,-470.699755234609,2069.38858635584
"1",-1341.211012463,6583.60577650701,944.159983011764,-8659.23332602433,5074.94648513196,2915.45876863152,11381.6726994535,-1025.15097004618,1589.79628037333,274.542994062416,295.571054263861,-16319.394620573,1811.85140397719,-17665.6455116242,309.710437614797,-8680.92566595062,-590.116489459391,-3207.43528911953,-2474.37088313121,-594.483696865814,3342.68415837602,12647.2321368388,-157.299013305411,14767.4148412451,-366.564919273646,326.297338058428,1211.77533428923,-13033.3142949335,6062.242677403,-10539.5808865606,2365.59808279956,2011.78171867191
"1",616.084053540887,-433.727372006298,856.481998736122,-4998.05598384077,2452.02407168117,1073.9556913485,-130.876666215469,535.9008952738,2471.93471844957,-2332.76538323929,-637.270240087281,472.521170302208,-3667.21013193856,3807.44237151769,685.575306505946,-166.43460783971,327.819965080244,1246.10904905903,-2092.6236867116,-528.220260435299,679.014889985748,-4380.08766658527,3410.10311685876,713.612475305587,42.8508991343683,219.803706351387,2244.63860588397,-2224.76288657555,-524.561273179937,690.443870490129,-5681.05862882492,2102.40733747228
"1",7.51913815517091,2615.86461684544,-1287.27962410224,1385.44770214901,4648.34655796994,-1723.9615231755,1492.22917284384,6361.66117440009,-1896.42715351852,1640.8633184015,6709.81551705229,-2042.65792869097,1837.93273394289,2963.62211922686,-1841.7433503617,1607.90424899927,-894.761125249842,-1108.74763100726,1476.42148289582,962.750030092932,-1187.49635341374,1456.07774578103,2862.27702137884,-1561.20856299011,1649.8140324372,3473.6832945928,-1839.03023180216,1719.85626835248,544.559605531959,-1730.31549218409,1676.96873686142,-1546.12580394443
"1",1392.74780685024,-8138.97000723157,6595.50650410511,693.61861864074,937.395621034282,-10724.7100650204,4227.66402053023,704.962171735878,1241.15613652625,-14361.1424681258,-443.545924697167,95.7489507468249,1599.86832014487,9949.28604080375,-3145.09768047949,1329.28525724691,-6631.21095557193,-4532.5781578371,855.51694916137,-10581.5542822835,3892.79735603302,445.020233903783,1425.28545927749,11446.3022802818,-4095.77725811825,300.335030797446,-6060.01577876487,9860.37064811659,248.096329001671,1375.12542480234,9335.00712362604,-3335.83694693227
"1",1091.48862874505,1503.33860403799,4606.33538909391,1263.90107208831,-196.569750291376,264.227927788894,60.1879662810224,1367.11397701391,-11007.1362893831,3567.26252011882,-1646.55731553076,44.9921117140253,-196.969179120621,324.715530202489,1596.1194534654,5424.74692493652,647.432132731354,-636.590496856714,19.1532310393709,-188.171853229781,1865.01566962765,-3312.25215873234,5224.17338131089,-143.532055615282,-88.4447651574977,193.948757341805,978.080848119026,-8787.71171151252,1961.83426607809,-2465.47719192233,-343.873348243067,44.1473870117487
"1",-3236.52207381345,2001.54515530751,909.904460637454,1781.2973255887,13016.8202935572,-1401.79372815348,2682.57842189612,1680.25014729543,-1613.26411019574,1845.09006146512,-14204.2363723468,291.054827554076,1438.92835639546,-3733.62330418165,8131.57290434162,-531.046977436938,2944.48451716527,6469.74898195219,-1972.00170154833,2115.58743041941,-15690.1967333724,-1231.12515225088,1801.37956952651,-9769.76322831855,2723.80450425647,530.449030485061,2649.06200857457,12693.0818823426,-1628.9121730516,2677.14060320266,-266.258141982616,-1504.17569533621
"1",942.234665759957,-1203.39321946479,47.4125827937053,2896.83557456059,9.34625196339093,124.385719006101,1374.35156811377,-242.811212225601,-1084.26442026828,-617.811027906743,-498.007308498676,-402.141515424775,-1061.91279519152,-254.299790583421,1615.60358198875,-296.975049051031,74.9505849060951,2358.73426719879,-29.4382278715796,-661.044490843798,-294.74408617993,-362.390975798214,-472.30229459355,-1266.98254628565,18.4075859986624,2108.59047732991,-279.32461942392,148.015073750284,1410.61152810654,-361.0748632306,-891.813377045422,-1118.06699671162
"1",-1322.27731471881,6222.73190366447,-16873.650995253,5884.58453477811,1463.2784766603,2401.99344524751,-19273.4376144561,4839.44367526428,1657.95057171665,2720.54530334344,-1744.79692941004,-881.883385334464,880.802635954819,2808.72345898807,9719.29895175139,-6476.96783728228,149.108435067455,-550.610186856539,16078.6709869755,-6422.53560349591,1249.72326452189,-14025.8193313313,9162.68631676449,-931.00576904525,2054.12249150332,-14424.5220217191,2056.43715071317,1532.53013466154,2491.08495820009,7413.52794644646,-5487.69490896443,120.769220509953
"1",-9.31650758961695,-747.607574161587,1953.42331557818,-2884.48978674731,2084.21758194479,-2806.43894030785,2529.91535902995,-219.048369058837,-2830.11373694083,1710.74640127158,-520.586043760773,899.369554338964,5315.74357333678,-469.280013882974,-1414.1231006339,2241.23287938656,-263.141160361296,271.306444309523,-1450.58757224361,1896.15545822086,-214.240886761046,303.692533541341,-5713.91063649171,-733.477217462106,1421.20828889141,5870.39182350933,-956.120291290978,295.954139269753,-1863.76783040503,2110.04368719216,-409.883818914474,-3607.98916164485
"1",2034.51740430314,-2897.16575075314,931.032958799041,4771.25440641002,266.520093766498,97.3478648079975,6571.42218006286,1514.80964655959,-5296.54475199769,-1891.11654535594,1023.46667086848,-5766.11886914396,-3495.16954877889,647.566039427536,4612.9551893673,-491.910419227655,1609.16858456909,6693.94990473409,1493.24273372807,-5389.63005227352,-2493.91211570848,1090.68076878045,-3303.11818976346,-2490.47913231596,596.992114269913,6128.33053025067,1638.19704683788,-2778.31320845493,1861.14454751844,971.681405189449,-6455.71826449525,-3821.86326951297
"1",7958.30053822733,-9174.54802234936,6950.70855973647,-3227.42111234121,-160.838915508687,-2654.16061568651,-46.7673921285815,-102.500470811231,2566.17047307967,-15751.9490582779,6074.83238060847,1063.55545481362,-9.466821814916,-1438.86276544336,-357.755692949637,1973.36864455358,-13085.1809267783,7059.97192277458,-2.43070780380752,16.4745199691082,-325.35897806673,-196.458120504773,-60.5455077797193,2708.89156299928,-12338.4785372615,5751.74634777347,1155.58851285929,5922.16425680384,-3976.22985474089,-251.925875616539,1629.07094570012,-12428.3962460167
"1",-2908.21062424477,-6445.87005702835,-609.902771384426,865.891046657868,3162.99463418693,-8141.90486992803,-700.19249242268,1264.08821433557,-9287.20013454826,-2425.80322381955,5.39177713042311,838.514943093727,-11457.5128550029,5532.01819194263,730.787664149238,612.992023814797,-9611.2478025312,10277.922008741,897.736628307266,-60.2779797523298,-3415.7266677826,16072.1246694399,-2870.16924796411,-275.615109911874,112.040201473195,9736.57296196181,-8175.16582652688,-580.414172745099,1158.66450784123,-4362.13877928715,-4719.60681269958,-317.581651406872
"1",-4254.79216579103,-611.337747002262,542.755580195296,-6074.89468732625,4421.21052841932,-655.791599307204,1712.10923044142,-13095.677982947,2193.20207915369,146.551114917142,1829.12605395525,-13216.4225737622,1565.7866098511,-98.0414980701767,1396.53243309977,-9950.11094897815,1735.60928852532,97.5517408187677,1651.34014840055,-9370.94028354921,439.858350382065,49.3784471535717,1884.38284723233,-2355.31274818535,-758.176013905426,-189.895401137211,1788.6982716459,1364.69222041432,-1466.28810291046,-333.69235037406,1815.00866008758,1079.14189236495
"1",7553.75083771855,-4706.98825446272,695.375199822374,-9887.00984360927,8535.80887599776,-244.238922107875,884.590106069889,4716.98890100937,-4302.11583812553,959.055383249287,-6700.50390662693,7197.6559040838,-3465.69881393589,774.685037141946,-3285.14286451973,4612.89873725497,1011.38490485045,-3075.02114823613,7088.33100183706,-6327.45061124566,548.373409508991,-4185.99021257525,5172.62227010894,612.473951650746,-1580.82627185839,6435.30072239764,-7339.79938226516,552.258124218992,-9210.85566680192,8337.74749215696,7.61869375307052,298.523573433821
"1",-6331.83859491073,2007.662124969,7473.84551040226,-309.908584800366,-1543.12049431792,2661.27726019563,2794.29008361382,-1232.76648678919,4808.80311780442,555.087338482957,4928.84283252518,-2041.84943724446,-1907.04567946625,1434.81134106932,3973.3131755258,-1645.83255366735,-7283.62937402599,3210.70402059196,-1214.74997443466,4674.86764469499,2581.0263491758,-2249.62006107418,2470.41405330308,3437.48767456672,-1330.5056736612,-6145.58230962133,3528.30363753381,-301.003680424357,3489.11488705246,-5879.7617159321,-293.453563096417,3200.65606618227
"1",6196.08002649305,-1943.20542871545,-781.01677663126,-1190.18256081488,-1754.73070944545,4496.94331785415,954.081042742694,-8005.75685638402,636.053474609678,4092.57125550845,-6468.23746353179,-1371.28656748001,-5921.03548542251,2688.91018811056,-553.161124427596,3339.54261527777,7172.6247479851,-392.831406419647,-1460.77239775506,3043.39766889482,3883.51007006559,-1632.74935587867,-1724.52691051324,4529.40359443176,-688.91755256799,4551.03198324305,-6004.67779478137,-686.643848640598,-8592.41674589975,2082.70945303482,-1367.72527185784,-3221.69147933572
"1",-1094.12551444745,3480.90983063235,-1403.91836808776,116.896927316934,-2548.00072295402,3188.88372532316,-790.583194967551,213.357052682278,-1981.67904367472,3200.80482036661,-1471.91876410518,154.150528596663,-1620.46387589059,2843.91148542786,-1140.97090211721,175.884064041919,-2621.23314002584,2993.57211381019,-781.208611586898,113.24825522916,-1227.98904273874,3300.59431380891,-1744.61255501793,-40.1203166788515,-483.682071482755,3563.71704874261,-1994.71162813455,5.02993239838426,-1364.85223754124,2996.03518424689,-1359.22926984194,31.2422503886119
"1",-4164.44753108021,-2352.03660760463,-2169.03689319925,4643.64626227325,19.1363769177804,377.29647578943,-2817.05170968229,-2409.61825698663,4373.25942643281,-13.6932228584354,1061.21881877131,-2012.06478162709,-2264.15571891752,2443.69439807518,-423.071086093641,2555.8267063849,-1751.6537871792,-2749.25018408867,1123.77505243353,-279.688008531462,5325.50997897046,-1100.94259585791,-4144.60679291493,-591.771566723843,-291.958862191748,4984.54129822886,-930.724826101859,-3028.89646329286,584.810950159442,-652.099977714565,4262.1755508657,-1289.27617919221
"1",-1426.05150441328,-2285.79476248953,1435.92438405138,271.890118686193,-1030.04421267184,3288.28625232131,1674.57802690697,-736.803797686226,3949.49427502028,2101.54069331948,-694.406252232016,3921.11858174802,2417.12425368818,-513.929762040143,3453.0844335651,2337.00949886924,-466.437104857766,2980.14663677577,2526.39434074119,-392.627462747366,2534.1415341261,2693.80654339402,-302.999178858507,3149.21505195906,2792.8423321255,-387.65913504558,2770.21246955669,2030.70921216016,-634.84392213395,1392.33253501993,383.00596823443,-1085.05459187556
"1",-2192.58862898801,-929.802372071444,525.210061939957,-5928.64301506336,680.445765240357,599.954883892038,-1382.2873287741,4293.36163986043,-1119.49278370402,370.110916554034,-1084.09576772834,-382.240968988586,592.466763700369,-3408.77418695047,2595.44993045831,-94.3311159960968,242.031064952618,2104.98402070227,-1112.99411439351,547.752630827255,-5287.80827499091,959.571793696326,337.490129262889,682.667846256466,5543.63621664495,-1588.71064936349,555.213314457298,-5650.80427910554,669.6515095143,325.345787184916,110.313124937949,5362.86173038389
"1",-1067.19284001777,556.073281532056,-2769.3505023454,-1091.61313791131,-46.112157799865,493.359632241389,-3249.31508994703,351.545370044182,165.685131521924,303.209146765453,1780.99794629807,-1222.30831855341,297.12459590854,4349.39190458758,-445.713013635434,19.5681091665823,151.134614816265,2716.79768024884,-680.5529239853,253.651726249812,-2784.62541733049,1230.32065774706,125.586588038107,456.283769545424,1037.07280434297,-1171.31101653689,331.533898262938,4188.34453841311,-340.924221116265,94.3316166424282,312.974896709212,2269.61419286141
"1",3849.80716352864,1570.95489784387,198.174022468695,1362.13606698088,4343.33106456382,-1915.66991748148,678.168584709816,-6206.53787169611,2066.19031749302,167.471753310581,1422.63712956404,4853.79581600612,-1936.22132884401,801.88331721515,-6951.65260332491,2479.81479452901,161.316669736799,1455.78279651979,2118.06746602127,-1205.34019724568,662.878473086583,-6756.98628493989,2372.34806124982,209.293037867356,1297.66787623909,2069.01981557613,-1410.56573407963,423.566125481026,-4743.14891308808,3285.24002452011,-197.944262827135,1340.57512271089
"1",827.591186019031,64.9095193093338,165.399246044153,-986.463383239286,47.4458053309346,-2730.46838841141,-580.982397832255,507.43985719543,-2403.34730929132,972.520828584943,589.336258111731,-654.596804533807,3094.52143427254,-72.262077756513,139.127308202001,2328.57902703977,-785.707149244762,-319.327588073093,1500.40672035472,-810.905767172793,-69.2651933923676,440.511778337142,-1072.63290970602,274.39639122757,-1723.50535175271,-977.900200843455,613.075065801949,-2959.41924748639,323.899877253726,586.651522468409,-2330.89363872749,1124.52202215157
"1",1402.73141051624,472.323813837502,-82.0570397821904,-972.048120913103,917.703118183573,582.232266170075,852.771111592775,852.319675856852,-1480.69391219661,-575.886316180814,388.020688145985,-1380.19813632244,335.301551751247,1672.85867751176,1983.35296493936,1059.57323601624,-148.414578863913,-503.757000593137,684.612693654199,-3381.60991356638,-545.63507979989,15.7404775142786,-837.759346701723,1037.8925989395,4.79984158497288,54.3443289228707,422.647173878116,-3502.30014476002,-761.473946747659,-196.374985412343,-1475.76470420996,1062.90540694749
"1",155.260432610638,1188.86988919346,-7220.60904207986,698.60815561092,-240.05066043326,112.958874957932,249.525908406838,132.211935823292,-2559.29848624953,2334.65916936911,-98.3567251728568,93.7398726585891,-161.574080485226,37.9994811234112,1551.95015886267,2613.17502609349,1171.05140293882,918.83102238858,92.617922360485,-178.738386047831,834.444105335062,-5981.30034940283,1743.99579419399,-1132.48686814421,160.122788910257,-326.1771455938,105.480536232756,1656.53882782376,5973.21262673817,535.342819659036,-310.498534075894,39.2554222375338
"1",520.443082392164,-2052.71613074414,532.018538655953,-1994.06313057109,-942.110516658392,209.850178149071,-1889.77496610624,-27.8977833877883,559.047116538057,-1157.33754946509,-323.025535056351,989.235065814324,-1133.71943386413,903.628020109611,483.87877943156,135.27620241133,2042.1394779054,965.471969867673,428.390039331803,2630.50276543095,369.399180698743,843.439939238895,3204.13718145068,-425.251838443085,237.526460898672,1912.94368787958,371.844877543797,-48.9237221948444,1737.61064289745,396.754638193745,196.209643074917,1031.63130007296
"1",4329.87533930303,3069.26398273827,-15624.0107550733,616.757547240919,2598.19628646947,-18624.2830233627,2288.85382786221,2618.82299988008,-18107.8215868621,3344.15172354532,2780.0035162642,-18470.7743813562,3964.88277639035,2961.42360309276,-18801.0868915921,1488.42692936516,2564.43965167081,-13783.8052106027,-305.373522367469,2402.35127604811,-7285.81787013498,-1783.67580382278,2156.99963536876,-2294.29370952777,-2894.89072479974,1946.77019158591,2837.67018633205,-3954.42812634371,1798.12905616652,6247.64326257464,-5108.92183550446,2032.81754397428
"1",-2391.27972073987,6261.45990423538,-1255.08187889601,-525.274116451745,-577.895597393219,681.324621489543,-54.4146411921673,-1466.00256917523,1678.08252536302,-4201.21868214181,-525.726611547992,-991.951325556643,6431.18957414246,649.84734802508,-534.686620523213,-821.256110507795,-3295.34693136227,-372.740014273465,-1098.38976504923,6391.66680297145,-490.316114590767,-814.278872226097,-499.393097685938,-2516.89668107647,-307.249163040947,-1107.42500503779,5564.36815812411,-1068.20060489534,-450.540319791949,-1260.20073866903,7361.11436197563,126.725973005232
"1",-1524.83291449631,-1829.68179045077,1431.06260846924,-2711.00555203052,-1575.00124468917,2600.18906320865,-1739.60903718001,442.894499416636,7176.32561229128,-139.347176507078,-907.825973130338,6578.7001986693,-115.699065347632,-649.708120719336,6897.33826820795,-164.659241386261,-764.09062942141,6734.08848471905,-362.992496685727,-314.943174306126,5074.93998933635,-148.51449906592,64.8139628050537,174.204545182589,-997.430414220124,-750.204987749951,-4167.64569423948,-1498.74207893928,2028.96511488217,-2940.80998048104,-1646.38089403249,2329.56278065008
"1",-2318.5777102635,-1251.61821555426,-374.863153917692,-309.229290922325,-1017.8472847569,-1774.28778492796,-501.125690417709,-714.352350653412,2851.10573874488,-2315.20456789244,-533.528925785246,-352.591163986095,2834.88753890121,100.248549221613,-439.817099386293,-677.836587720988,-2549.65453073936,-518.851815008809,-412.674849051884,-683.405005776707,-2632.71834931535,-470.097763391124,-793.511174666445,78.049918675059,-3605.71583535091,-726.181114632948,-354.947325803639,4847.90467481425,70.5348351225592,-351.870026798313,-188.34838419475,4017.60554348883
"1",-10318.2624332196,5210.45472597002,-12867.3886615366,12059.9525231422,20703.8469534983,-2255.2912656841,-819.130334585681,495.451525077783,-7509.5594123014,5383.39780593683,3850.92775499927,9009.2012856824,-445.801553307403,-2816.40480096592,-1399.81099575957,-15600.5986552392,199.183888259651,3548.77989215631,-5160.63748989728,-1275.24778969326,6592.61661456355,-23081.8124090689,-3479.53141460447,544.559215229259,-8281.57727518543,4349.14775355779,1162.71928323779,14995.5814490825,91.371031321083,-314.181854853803,1753.15247364732,-3089.21508899963
"1",-12747.489537731,339.525446996951,-13113.164434313,3422.14656617509,3754.99779887266,-6456.54700264918,-259.888221599995,-12450.3623777907,-2858.82110897391,-7490.17551865522,6686.67052445925,-1023.73953403287,14066.6632932604,1606.77368322281,8472.53526502252,-1327.97078354121,-17855.1116057307,-2194.3947595476,1736.49667325371,15628.2075111343,1765.08078666463,5745.966995407,-758.368949293059,-5034.07364023962,-1413.88176091419,-14916.3515589576,1198.02300631002,-8865.88599621897,6637.58731487508,3425.69637123035,-15767.0225941573,-1439.3110565549
"1",-2470.13909759803,630.402869107136,-3625.28637326013,3181.03562997431,127.89414511887,-866.498379621019,6045.76986035182,-1519.74842854283,603.513512188487,522.362235918527,-2523.76186542046,290.123121243499,-3263.5767811084,3125.34045153152,176.003526646642,-951.576845159521,5944.91100625952,-1420.13664793427,568.139850352315,941.441131323578,-2854.78992175119,147.308840634632,-3583.35867033204,3735.8098389963,34.9958501685393,342.227359114852,4959.86391717638,-2217.78897849858,537.317589619462,-1790.20797716505,-1474.92037403052,68.6309559143054
"1",-1029.20780559663,10363.8761870738,-13.816480493244,165.082292158415,-1966.27490398649,-3488.35108943455,1713.89211490796,-266.437607494098,3760.45350568575,-5635.02398052074,583.341148424499,-1171.34679194522,10581.3257207453,-637.643530802245,295.498863202178,-1885.06029654609,-354.393187823635,1202.48354060592,145.748433380727,163.783436561502,-8592.13058152087,1051.39488596905,-1002.45435877919,8925.60593112624,-2476.76549486731,410.773106945825,-1643.15196106431,4802.44341925863,935.364842697869,-1300.06448221681,-11099.6334039982,1758.3963147224
"1",-3976.84629690382,1387.17664914621,-4377.05405693163,-1349.95516310875,661.372332111273,25.3042613707292,-573.442324059654,1565.47413784579,4315.56734092112,411.950240847195,-1044.71470751683,1238.57407917856,287.718908253035,-2018.54323412426,-429.307176717158,676.90934943923,-3604.57447896342,-1110.16118164438,351.513858833051,1605.25447350055,-83.6552066070937,-886.408768083922,1988.85571647286,420.33017471183,-2092.40858603752,242.399195131236,596.615496945709,-2186.47633706221,-922.099398005191,1076.4527356678,3260.79242652044,462.669830355192
"1",733.805961590495,758.563442024251,-319.450816258251,-219.735123741636,264.289648958021,1908.73074879858,395.690247221937,117.316288648208,-1060.06631850844,-235.538964658833,185.414863007048,381.545703143515,-1420.17772739213,-516.174569558337,35.931602865107,417.482852534236,-2267.81677439673,-923.702607633563,-128.063725596876,421.784293965715,-48.4172892192516,-620.901539723241,-78.6310671345902,74.8276368299973,1085.52301570317,359.116399607962,-52.2138586670971,294.07471034369,1986.60043621093,311.60488702033,-104.911551774366,-185.419052847537
"1",-8369.52914809798,5035.4011215155,-3284.97901599879,571.035643620477,716.887924131261,-3849.63372839634,390.468834363439,-5247.1302211206,-2894.90593625905,273.135306455545,-7837.06579793211,-1415.86610314259,304.870789504158,-7716.36972422543,-79.957839421502,684.00756034771,-7347.58728087483,1324.51000362423,664.394865341894,-6827.13121956627,4082.90922053501,509.584768522991,-4193.50225708544,8499.60418042376,124.887570600985,-100.481502331926,9565.21189615855,-1730.47125562844,656.126259417891,1533.02724132505,-3969.25090073706,484.798096530502
"1",-3426.56786728513,1313.81625744979,-2812.43302927049,4926.08698868311,35.1501200836908,-3655.53796075979,3552.57662179734,685.865129009014,-1962.95087021436,3854.50702897442,279.740687789244,527.258827960287,4989.03018505737,-1417.51905000361,345.970196304216,5315.48256400764,-1438.20854311055,187.537984260441,-4142.95395423139,-26.0904044858444,31.9156317265461,1999.98121938753,-1801.68399567214,357.968254935713,-4552.95296174525,623.753275169233,56.3020512838916,-4129.8333499458,-398.381534651136,-82.2898340442249,682.028771290109,-1068.82787654132
"1",-2994.65068045842,-1035.55098452775,2593.71081675,11202.2574881866,-812.858659910396,-5879.19995898529,10743.5077056483,2288.06961289561,-17501.9153261298,1217.02283820321,2652.42820524676,-1418.21351245567,-2753.30566594041,3807.75713689358,16438.22448912,-100.72980777493,-10649.9375075196,6110.00761715937,2472.61343088224,-20956.7512607677,-1514.51324705868,2469.52325605834,3624.26994123648,-2128.77630596589,3614.27416254287,17365.46315223,810.005914101059,-11172.6807504818,4741.79572373795,2693.55083419126,-21670.5222212933,-1955.49485415376
"1",-4887.04794871994,-7992.44882246203,3974.36060746294,346.249168932069,-730.11205498298,5714.64285343849,-3413.89774024119,609.148309731252,-5176.0495128512,2090.89002473797,610.618526262693,-1013.33766032416,5083.22408416325,-2669.57840608176,506.631262928474,-3597.9577618677,2070.01399422108,806.30259070335,-4365.35207485901,5586.4033245089,-1686.11666893482,708.593600666939,649.971568476738,-1604.15228573173,532.439570019105,-4211.0237867469,5265.31866441564,-606.605759631871,147.650762321983,939.367385526466,-2135.74322803378,857.207972349924
"1",-20062.7017630109,7070.56282861125,-31631.7097975495,10624.7189321945,4445.29488890669,-31089.5987117761,21456.7003162855,349.301326421084,-20280.7260639346,24404.0346486695,-6621.74555515003,5178.977605643,28116.448772875,-14002.3235331836,5438.94153013713,-24145.3629568592,7709.20526143436,4728.43890184019,-36048.4470919009,19713.3670285947,3041.81165724799,-31722.7888350287,21455.600398357,-252.501047696636,-11747.9466452618,27119.0271072939,-10111.3376060181,5582.26596378895,27311.9576063045,-13791.1967586858,5831.92942817282,24100.9047532624
"1",-31319.2131917988,-1650.20594262607,-24873.0368980849,22574.1138442116,202.347848159536,-34037.2277262694,20107.4260134833,2669.16872489279,-29240.0160893088,21749.916532561,-2382.9417093615,2698.7508303755,29120.3700367715,-13402.5748669372,4459.57393685468,27803.2942265539,-13262.787770991,3121.22835824825,29458.5612646021,-13483.9450662733,3998.31380195759,28742.5998276998,-13140.7474098123,436.498630172672,30063.5969101861,-10374.0888152243,-19109.0840700699,24929.3041019562,-2533.40408240555,-29598.8161830849,22171.8730518349,1755.21501660872
"1",-5773.42824795407,-352.998424979897,695.749306975581,-6524.03487681938,904.711345730459,-97.5361955110985,1440.46269182712,-287.738298941605,-1566.42221349301,-111.540643692343,465.389222781909,5757.80265690078,-299.439659042106,928.815142265942,-6025.81460940593,-304.140557455684,-44.9970568107062,-420.356990224231,5821.58523309768,-276.364282272797,763.3925276671,-6249.86692311539,1136.22531004462,19.913081243271,1438.29495346344,453.859226718189,-1490.83781248575,-187.792315600826,642.91259704161,6863.0780235604,-750.480223858789,719.623623334922
"1",7558.47959387659,1500.46224411304,-7684.56272808709,23328.3604305615,4291.24776370674,-3981.09889270518,-5852.24423366191,-15855.2225468544,18012.7572690073,-4419.47128764691,-905.296009278917,3291.43526844158,-22982.2233366884,11571.2985571782,3690.32554745816,27093.2356242776,1092.63909851077,-28472.1456508488,-1493.97411048136,-8239.46813263951,23277.5366633872,4544.28014242581,-14870.5376921167,-6009.33012186642,-13731.1349080458,20825.3194136343,5309.59917175553,-4304.53175528501,-4622.64414286934,-27787.7027604341,3410.61690963018,2598.99786498972
"1",315.704020163891,1117.64172063961,-872.671728898437,-534.068012327962,-6926.88317575687,983.597775719044,-590.690208650877,-553.901454336625,-7439.77087245926,1249.04732823082,-1054.14776077269,128.066371686959,-7430.08057697471,1254.43793118895,-877.674829519839,-122.014833482352,-7072.23111293415,1241.48164895533,-1374.91523896618,5103.76966925717,-3881.56496161492,798.451012105658,-1490.79555245336,7375.68516399434,-2487.67596860795,455.170513228764,-1782.81984919189,8943.04245150999,-817.354311171114,229.188166737779,-2272.7649147971,7871.75511795043
"1",-1295.64586681549,3400.23509694712,-3157.51377517272,-23.3058998390728,-3530.61190425773,-2100.45619741544,-230.392948716533,-4310.8385448521,4559.03383639171,-225.438276725719,-1006.44097029936,7649.85231149438,-415.309381292279,-329.099407752643,1197.56536327403,-3338.05900409999,23.3952697370659,-5043.50334148706,-1179.05350666371,-479.62690819256,-3007.35905492456,5832.67234227024,-167.44736726061,-573.658576915199,7859.57016441839,-654.701710311482,-195.001372042777,1860.88192646272,-3078.58920398135,12.5694043264323,-5127.20824002973,-1126.323804397
"1",-4044.12022185628,358.141834058445,-2800.74843395588,-2712.62776132375,-523.691195853489,2631.35880041171,-2690.44109525462,-748.858877865311,5629.23945842022,-1578.72431180017,-82.8498474661324,9483.89981362542,-204.546296407959,-2331.08447390302,7185.61476354424,705.447148901396,-5060.75023752954,3953.77361541145,1013.4621232157,-5018.19589481574,1659.7572663685,882.270899128624,-8004.51801596174,-564.477841988387,540.394446423362,-5386.40508669655,-2033.67300341016,-161.555010135003,545.123318173708,-2588.09035804462,-434.636988187306,3685.81739840251
"1",-23921.829449207,-32715.1825108673,8118.80972174526,321.352651177538,4165.97855863426,-30911.9841952712,8703.54088708821,586.322899903168,5452.69926962039,-25256.6031954326,1236.11221164772,110.31314782553,5637.56695145552,10085.0967955291,-4422.67163082613,-743.579890188028,5910.77452807621,13055.4678251039,-5791.1405809789,-188.368309897399,1995.2507434198,25226.7719885961,-4907.17998102155,2891.68724487981,-22601.2139912253,11475.4131309605,-490.695669521293,3807.91940058857,-27818.6859038377,10485.0053404865,226.426219480867,5005.77975919074
"1",-6.42794684697675,1132.96825805562,-1118.16687803126,1590.98339608666,-824.050890137425,-612.351457856659,3509.12866834904,-822.741553561449,862.836312095226,-3322.46067150259,-3877.49999002608,1096.73697627727,-892.951720353169,5159.59460779557,-765.170466943077,-326.714699272174,508.750173925576,-803.887866159007,1104.84060420841,-1141.67189409732,892.346800283515,-767.582424918437,-596.988188838411,2732.90795803885,-826.920217919831,978.482868862518,-2869.13127414749,-2461.22644695299,520.361549125066,-762.847801364524,6801.40881151188,-619.679232521838
"1",-1169.30368418463,-2492.46189145583,363.64928352366,-182.583075425847,-609.247017143458,616.17443706914,1324.36106068469,-25.6688178219281,688.251241405528,339.837000994572,1126.16276248643,238.166690909505,2616.56336128032,-101.478759302705,844.476848080919,319.225761790763,4357.97803075979,-62.2176590662657,516.48243110543,1.61070487865629,4229.66682041177,-683.666962433551,-372.751752960006,-317.448969704682,1176.22149588953,-1677.78464556238,-293.161305485027,-1129.98630762018,524.091872181581,-1646.61602024253,-189.242844370705,-2713.08510151671
