"1",-5661.61843383854,-447.86125659193,398.129548697568,-250.185383146691,4284.3263252095,3959.07632373412,-3087.72751659118,-3074.45694269867,2740.42234429384,230.413537357515,-5611.07055345784,-985.314888757415,5696.84361420926,-104.477561506442,-2268.09281084704,4551.25516112697,4066.67992864344,-3193.17908224085,-3589.27190110682,2544.95595450035,-129.458324295742,-5950.27196440077,-993.322343794273,5339.40061506608,-645.795246654799,-2077.61127409527,5215.44609631596,3915.59322012878,-3166.91958884534,-2893.86145365042,2894.44904737765,-101.85598792022
"1",-1251.14791305137,7787.61091537635,93.9600575478123,-1259.75450463793,7532.77890876179,-1873.48078692933,-966.911943072351,8085.76616638401,-342.818509388809,-1690.57286641514,6414.28610766681,833.484996808991,-2205.67078164033,4393.46977333424,1759.12565985285,-2876.25222263322,2237.16513530756,2721.94765886646,-3712.20064032004,-1923.78777263123,3040.23487483176,-3168.16622748815,-5164.23551190191,1862.15434174218,-161.299419249869,-5414.44882722126,697.645994125243,2731.98869879475,-5304.33513292398,89.5176597646954,6487.1295091745,-3009.88745861645
"1",4081.70071963802,-1014.8135037062,-3021.76301821916,-585.879679609237,3184.59439181913,-1973.23330000494,-6578.60272516785,1096.17667984102,-1229.89825906586,-6499.53280437884,294.711066799503,2586.37727215228,-1698.15210496067,212.078920183114,4095.42551899191,4040.13514959272,-1549.59269806582,-2740.99517233118,3566.7000205115,-1978.542153686,-6706.31965279459,624.010791216043,2842.02901509759,-1247.32622023789,201.16597469895,4123.55338557262,3123.01144037603,160.075198026572,3363.05488704012,4451.70068078239,-718.650815426358,561.002357238903
"1",10899.360479713,-3703.32401163605,1926.8784048057,-8334.98240834711,1375.62568320778,1133.99808477688,-5531.85288153854,7304.82030461829,1530.36001817899,-2788.74803462161,11590.4322674,703.752619559505,-738.083995936924,12464.1535404947,-1193.45524589263,845.985036494421,8865.01337128117,-4954.70618912338,482.094762759736,-881.153261547235,-8645.09950857892,420.495644844778,-6735.04411053416,-5183.03098268661,1099.78089264794,-7060.89615300731,6033.93848464541,1920.76855447646,-2356.6968214337,13600.4790494883,356.056164518428,433.369474464588
"1",10568.5740280679,-660.194109347178,-1398.61389967641,7152.08389933429,-4549.30586556678,2633.68557670668,9581.02376856571,-3457.50780116128,-61.8874294711446,10203.2694356431,-936.30730591779,-4306.58043650749,6886.75173972215,1593.6144004794,-8629.07946361488,4704.51347586619,2370.40685686668,-9359.62299335935,-1758.78318358345,2998.08940931727,-5866.34748980974,-5145.2178222056,3187.6180305106,-640.956081058722,-6147.50584288002,3247.57093485768,5482.25550229131,-4156.22831575829,1885.19976926696,10274.9253628582,-2855.95387753304,-1316.78140581334
"1",3027.27424136062,8103.06358586247,-3470.20439375037,686.488893719854,10214.9400861234,-1067.5818563588,-1666.71439925916,10756.1186870239,-759.678329472816,-4822.82534830443,5920.73350914368,1635.12043454814,-7511.44486779839,4002.05017202051,2184.290332482,-9919.51391266289,2297.12379501829,2771.56475774422,-9008.6304744345,-2879.11904550499,2974.08179500086,-8070.01891424796,-4340.29449216492,3656.73550035478,-4134.85638015919,-5318.07420187269,3489.90440877953,1223.984323448,-5655.68298607788,3494.23723905698,4079.29838400801,-5865.88087419725
"1",9869.59657435263,-1917.72246162804,-8281.07795213146,-794.658005780581,-9334.81900519588,707.351254225504,3108.70119085409,9236.74117894352,-1803.79247650641,-10112.3598216646,-2181.83343881056,2788.65321656981,10745.93921731,-1105.63856167479,-10120.363454921,-2486.04765246105,2678.60550938892,10874.8248091809,-1121.73986468505,-10200.6209714326,-2566.09900185775,2748.62356729372,11134.2654437139,-830.710668924728,-10206.3010382637,-2160.49539313607,2910.68902389941,10569.9131427096,-1361.3809851473,-10326.195606907,-1437.7122801243,3154.60266316137
"1",2572.67625068718,3854.47635973745,-2913.81834108565,-9383.42519552117,-295.593283033263,2883.82759860614,9264.98943164162,-1559.17975684603,-9784.40376249987,-2148.2815832729,2065.36626353541,10905.8769107834,-312.289411108496,-8722.80031541248,-3475.05156313873,-6705.02078337341,4130.18615584536,1339.6376362435,-6247.5690171319,-3863.38425492122,-2128.19448906885,8624.71144564507,1676.11202976015,-1554.88531195092,-3933.21038120482,-4437.77415564502,6909.05955166252,1968.0985673772,687.783409263418,-3664.71893732035,-5706.48574016056,5159.01178564469
"1",-7702.97174940964,-1049.98564303412,3637.25954315056,9903.75309315592,-1793.22018326981,-4933.95750182174,-4145.17058428828,-6456.61565493014,2200.05664352618,858.341031024439,10756.8143058424,645.692716234495,2358.39001165408,-3286.50417626565,-7981.50703728509,-2504.78075106387,-3801.44799221569,6115.84109323101,1693.34293969354,9500.39106525789,-722.752003787527,-2057.74382115512,-2523.36348089333,9082.19323326727,-1728.40849184495,-4543.5167930344,6253.40060671574,1503.41225502141,9639.52808347068,-224.209386658585,-1298.33671559855,-3968.30407391944
"1",6590.27987872374,939.655993169552,-3462.60868544027,-2693.64886630231,7847.96696102915,253.50484617439,-5061.13549561592,-2363.69003531026,871.914140662301,7549.03679757585,-578.699890591057,-8566.26606925984,122.065547652041,2696.01494352333,5755.53332982062,-2349.87337758411,-6518.85203448838,2844.17504496275,2393.25602788607,1654.78636984028,-2538.11503653972,-4555.71860125753,5209.97011536699,1898.70897925746,-1785.15019736217,-2571.26949306803,-2774.9389282776,6685.05587717889,1028.69437853823,-2351.55304880276,-2585.80086171068,-2175.60813367441
"1",-4171.42405549407,8382.55474874399,-883.412980063984,-987.846428966937,9529.93997363431,-2190.24400722974,1398.6514660143,-11545.7716788741,1511.55548987358,410.641832909018,3616.53694237895,605.643981164964,-4126.90074361549,434.043690652259,-2522.43216246134,8801.43169516262,-1780.22104569328,1361.15314384886,-11086.9929533775,740.738517396615,489.406021888214,3797.47995075095,1860.38524603335,-4204.52805506569,625.272751302241,-6984.56660004136,7003.62308237617,-329.079583995731,3248.90710688509,-591.534872193153,-3859.04465255709,709.985066556174
"1",5050.2893009663,1165.47020263076,-7503.10229183875,48.7967435265167,3380.3094395015,2252.76559059095,-3195.26210041888,-3467.56135653027,6369.53395597977,1007.72398901476,-6514.20217633604,-2756.76410898547,3253.74140295857,8648.76370412392,-1730.70259756916,-6803.51980575699,3678.47423611405,2272.52617467038,-3433.62305580173,-3109.36407703627,2845.39254151203,8225.0854190987,-1653.08196428655,-6625.82369587728,3518.38527994704,1906.14110490734,-5211.62998817381,-2946.76786427143,3545.73857506615,7795.16032470097,-2203.68617693882,-5541.19522641169
"1",1132.1747761826,-2555.43427082689,7806.4191247388,-751.810051221507,-3344.66739741422,1791.18806458153,-2911.19786254979,-3707.43549532887,1708.42246451464,-3989.83496711314,-4145.62864058146,1068.92312211234,-6533.31698123577,-3856.95588094269,512.692379429869,-7763.90293345923,-1600.86349552294,970.049578422233,-4561.20388838435,2525.47966038192,1369.02371156405,-2101.43768055963,4857.86216990607,1476.37117331357,337.999507554454,6635.46064758702,754.217469254244,421.662801323561,6600.61506565322,950.456988785916,-825.897817742322,5646.73674963431
"1",10889.4462693655,1351.70611733429,2488.40203292424,11173.4877814673,-1368.8879393061,2905.86356779597,1866.65660224374,-4617.41450944894,1579.00209443449,-6318.37978377875,-5988.39858619047,711.068945197217,-10396.7053669462,-1384.5024802608,1479.1255369611,-3251.75516615483,8311.66657032327,1608.29163227957,3637.68315803959,9320.29999583076,-1871.27390450529,2584.8194580854,798.198998009318,-4912.52670627646,918.450776466574,-10016.1285684515,-5508.03615801972,982.577661260337,-9072.70170632154,1089.32880462633,1636.90015172737,-198.472429986535
"1",9795.94616870449,-4716.50881434953,567.911752629689,718.368050732923,8546.6334205486,-5465.87817539914,995.878343446497,478.671335942364,6475.02226401859,-5857.71026972031,980.441490568396,498.9017378173,6589.46012576745,-5328.2358680017,857.902198207914,435.785525795723,6463.79460261382,-6287.86636242554,984.606439900242,475.857210074513,5825.23977023046,-6842.8293928387,1073.21195640404,458.165252633914,6594.48954598014,-6616.01040361864,1123.83135736596,372.284267875222,8854.10458546289,-5290.45162251602,1041.26711870782,356.939050613574
"1",5670.64615951876,-8322.91406961116,-181.947327243938,-1372.09425441836,-38.7872423936747,-6060.43718131674,8757.41989326255,-83.1914048307348,201.272023802303,-3387.13365413991,-7726.1597384984,1251.18225114377,1280.4983327058,2898.75342893864,-9052.60586617242,1514.7322431335,1336.22745680043,9174.42543179418,-6836.40145773103,958.72392831711,-2681.55072437933,13068.1955792019,-1534.36940091293,-591.408733683289,-7851.08351143943,745.961002736478,735.358913505417,-849.850743422229,-6582.10808444557,-6230.53839249589,1389.93801539721,1396.90474496528
"1",9121.2416651423,4163.61436339057,16261.6841994424,-17617.9321237132,-1201.25894684457,4514.64092128452,15942.8016196671,-7126.61661595369,-16346.5418379548,8363.2710066273,5127.66393798932,2645.02731612939,-6982.37627455104,-7272.78619464751,14730.2087263205,171.118208151879,-11142.5950604666,-2081.43106862751,3568.7802669297,16016.7117914625,-6176.35510757457,-17216.2906335206,5695.9438652878,5858.902978617,10675.3923077724,-7745.33298001732,-15874.8645542601,8626.01703271419,5287.53347906247,9872.35565166094,-7804.6079086083,-15314.5137710186
"1",-11597.8880912109,-3339.62614793856,1817.67491448711,-3828.86233013877,4251.39864087242,4525.55510067491,-3159.13854635922,1458.53364870585,10824.9809108204,350.583888186391,-9103.18746623017,2630.71212469784,2968.61516640864,-10111.2210763926,-4786.31476916061,4835.10393876682,4745.34184266922,-3723.81949427335,690.683626795161,10603.6941466063,363.404902540072,-10006.0253194657,1213.05474475078,3303.08570619192,-4981.92030875954,-4532.62593292001,4158.46792466224,9153.4691871676,-1203.47601641806,-5350.11694868039,5491.15437665926,1938.62296015862
"1",1648.43654144313,-1639.72764738331,-362.808424659353,1845.16733567559,-1136.0366609353,-531.043912897806,-643.968767825494,4020.21883582464,-230.55995989724,-6702.17897112026,985.941773339685,2324.23271136437,578.566374457323,-447.907813388123,-2361.6553839557,3323.79087353748,722.472459426078,-5401.50100568409,274.289480525757,2904.5300319558,1908.53683581334,-1050.31914256577,-2156.7989680429,2796.83040788059,710.41111305794,-4526.8859567862,172.999870889171,2454.76573199555,3785.62484590026,-1102.81422790654,-4946.72995451973,2772.99045911427
"1",1806.81115000093,-4814.60261101081,641.542435281431,322.979798936736,855.614210096564,5159.78870522735,-2876.05055264367,2393.35069061007,4508.12716735791,-3049.0849026002,491.542125557706,-7227.23129012714,3837.98607863539,48.7319424585906,2704.10905816525,634.281257567929,-3124.57141356304,426.084310044279,-3152.94714418602,5615.23513847444,-1520.10276989155,1170.06720189083,-6265.90286339974,1653.00420473253,267.884904581377,2481.92351727549,2731.27554427952,-3350.27721148219,378.804437781259,-4348.4437337819,5700.52790128175,-978.230634001214
"1",-6033.84871381132,737.108501301201,-1645.47531604367,1875.05053268085,-7400.81865115342,8605.08859348145,-1055.74358404378,273.548952427412,357.651396822604,2489.35899665884,-6002.23309600593,232.114333997878,2238.59974898948,-4821.15323754735,4760.95745759254,383.830147303298,580.940523186636,-3905.20394014658,6091.75131012142,-3616.76404211626,242.80141178744,2509.86213875201,-265.084852462922,-4052.97466754132,145.138384379531,1292.97277165855,-7943.8931832229,8977.21612739598,-155.130686135779,13.8880433319892,1142.17734150206,2316.94982079366
"1",-5035.87526006509,7858.43235394528,3711.84459912206,650.870625843657,-5086.62117382644,476.585767445967,-251.974922263362,7307.12910957323,-3537.97676270841,1053.31723892859,-6709.83326811469,6655.30219213466,-262.706110367769,2185.9396342408,-5876.54659246317,-425.641292529229,212.411949008487,2969.39145823121,2583.85249126692,-5224.46242091026,827.9488026709,-3065.30676444464,7534.2367338303,-1808.18586865893,1496.93892576181,-8703.0154495324,3784.6576975664,319.02025569872,3090.78367476401,1746.24650003687,-5283.75038950028,1042.70980056894
"1",7082.53548215253,-441.238526915198,-4721.50896134427,356.790807806564,-4303.57383967954,-2808.06397321552,2984.9470168155,5427.5900393625,-1726.08711259657,-664.16462747857,7273.6915416251,-289.842993652499,-8027.2700995642,-509.363870229625,1965.23819154546,-2210.46536893378,-2613.69814319263,3017.94074419336,6611.9129210117,-1718.37741058336,-1406.73318144692,6678.69638284487,-201.731025736938,-7747.19229976029,-397.510781606489,1466.84743040174,-4726.80557508645,-2785.09582860994,3064.65160991901,5009.78499876247,-2120.05132966229,-204.443526168118
"1",-2655.32511606946,3084.44784299061,3961.42974616509,1651.90694869533,1424.50141214776,-5069.35801136911,1144.93957317467,1184.49578222819,-8418.09214581649,-1608.54379329145,1281.1007726843,-7058.12542540314,-3778.31263429393,2058.57421307692,400.797258826247,-2624.3900383629,3247.77868757881,5513.48638054632,-865.450002992453,2481.10717497586,8483.34422257715,417.598627601405,-2674.50307405404,3731.40942455471,1126.9183065547,-6317.61712370021,-1077.65933647403,1173.85971060742,-7932.68272559248,-3518.8101242431,2275.2905100795,-765.454987236858
"1",-782.609965131196,2500.89934091974,-5911.28629099976,1743.67804663091,-4104.54352983644,-1990.91170267441,1642.4426352102,-2962.81282205518,-4523.15169832885,1785.47096161343,4039.01247094152,-544.690285073969,-91.9268769896003,5025.71704570879,2179.9505246865,-5463.69264636893,-3966.03851808834,2111.62557859113,43.6628916372674,-3195.90029140073,1670.73123650682,6229.09735630312,1947.97174070978,-4313.48947954906,-2535.60979674286,2070.15812752281,-1393.06725465197,-3758.74861997437,2062.29953029032,6344.05428753529,1427.86745743833,-3639.36468527471
"1",67.3767646911073,1382.40012335525,5010.95010299721,-367.953487092397,-2325.62233292339,2210.21094541439,-61.9367445060584,-4070.73856143197,738.240601345679,46.0740784633791,-5459.86001846863,396.192604659485,1.41609183722121,-6245.58928634842,-528.700750005601,567.512784544303,-5811.76449731216,-1537.86793428257,1294.63127355508,-2539.22870135066,-1127.55962811799,2061.87262652786,193.122145205821,-666.489718149523,2566.69732912449,2486.53807973765,-460.513040171682,2660.36584047984,4319.61695365527,-352.543790212217,1700.44652416239,4996.34820041248
"1",-440.865149979304,-7037.816430884,2109.27333453286,3147.9351830802,272.194615376551,2376.11240678905,4167.61086972271,-3566.69212321604,835.21839327097,-7263.85526044396,1120.38993894978,346.588510016655,2140.01413249524,6630.13943632172,-2950.68187902024,859.679998158866,-7228.39898694607,-491.766211290942,303.70920795405,446.890022668047,7093.81240886648,-1328.38639082824,1513.91702307674,-3688.80024411,-1902.31927410247,543.18003913335,-3250.80077934108,5249.75244504203,-229.208297561218,1772.56965703034,2726.77996517533,-3635.35583443932
"1",-846.957881906634,-2390.87729732638,-1990.92877262904,4213.02237792824,187.385587330915,130.178367474814,1699.31607977634,3865.89054339474,-292.242912993982,173.226193978009,-128.593254890311,1778.67777695967,-2005.87532418891,357.743483881895,-2164.16424002796,-2314.30436553386,-2983.64504731522,400.642996756716,-1260.20749573221,-1422.91484788835,-1030.79968295792,342.401988039544,-50.0465543652255,2270.50124874845,3693.8479731192,279.985199469356,148.277857983309,1449.91881932612,3825.21455244394,-685.106456820463,279.860203112078,-1399.85021346898
"1",-4864.72572353306,674.083709201873,-2621.66353521942,576.391684338521,-2558.14492155175,7555.64499661814,212.029643486782,306.367271237231,-4775.57324330561,799.304375060341,463.114587694565,544.354123480821,-2773.88971257313,-4537.97984157853,394.669712366651,630.265414440437,2249.64975677021,-4805.09191639748,429.035471495279,-264.077927588716,7214.9496909799,-1739.89172257722,566.926639522374,-2850.57282143573,6057.98959327371,485.140879831638,515.696077080338,-5104.41629897913,-540.158675378176,527.135983660501,465.99339071252,-2214.4737815476
"1",1505.71511677825,-9048.78811920093,4913.35215883715,-5387.29605441398,-2926.40532809912,873.635264095575,-4854.85980446886,9708.1264183393,-692.027839624342,2586.94849438439,4570.95713828458,-5855.29764001439,1614.40268560862,-8701.03245720982,2341.16932773628,615.993589111742,-852.228813316508,9855.65092091689,-3351.56102843732,1998.39383947667,-3154.66533657044,-5004.96344610911,1086.84449749485,-8453.07024961137,5838.43943878877,427.735146346316,-289.892915231137,9523.36682411673,-3729.49154408247,2315.87382924121,-1866.18753622276,-5880.10317342939
"1",5954.86868588762,681.753061153351,-7469.87649865766,-24.0466629198507,-1557.92543827953,9681.57600954879,-4467.3690191154,782.87567428007,8059.63990581799,-5879.74586132316,3170.50705636524,3757.06710186581,-7440.90816844565,1773.0193372605,-10214.5276993588,8146.67829508111,470.886297429934,1380.3976072625,6888.6020536416,-7591.25930934625,1798.74136232133,-10124.5402393809,8450.07395350529,350.63735298053,-1338.52365508488,9535.21835206444,-5758.61682198289,2954.70354358457,143.706738241585,-7429.36585018161,1963.75109077416,-8991.87727241528
"1",45.7720371156992,-632.707791466253,-1599.03955517797,4470.60854447622,-597.612509594439,-8019.36810179854,-1101.01943790282,1959.62289965421,-7614.16782412883,-158.486764883224,1532.20435756123,-5814.74303248155,1153.1275371541,1805.63755789065,-4157.38123835362,2855.61076604821,1739.58388727357,2914.95500879016,9599.52231698567,1591.53859968345,357.828730781907,-11186.0253550014,-5809.31693528979,1483.45778591253,-11176.471423506,-4201.75399853279,484.733041749942,4737.31654333114,5770.30693885594,-1410.8967027636,4596.08634667758,6830.08646076909
"1",519.042999777812,-1852.75193922633,92.3506075375501,-1140.67340350243,1237.91461903264,1581.78480204068,-1171.85273575638,86.2026633176492,1859.28990963467,-328.292822968663,-875.867280934909,2161.58700176267,-40.2586121096433,-1322.4843906271,2280.56608114302,-100.056223534907,-376.007605014697,2226.15138205161,-294.882877626784,1015.62619490952,1566.52086951943,-1050.52943012528,570.445387063815,-1725.56257372614,-172.908528569652,87.9739955059755,-551.976977088804,2178.60008414463,-332.517710968401,1631.53545044228,637.390908911992,-1286.00325779874
"1",-3622.03229542049,1374.8677895014,-2187.00728313172,2046.13318344498,378.90008965629,3036.10604979268,-891.266976049015,-3347.74098229166,605.231124150722,990.507703173003,2611.76053005774,-1169.25197210884,-3749.8247340079,1073.28348405511,1298.58704005078,2585.39797880173,-1257.17411561479,-3431.07859991546,1031.5759566391,1141.78844045518,2487.82007126391,-1288.17036855224,-3518.55801880642,1262.98834525313,1362.36476452618,2589.76830783598,-1571.89924078377,-3726.21924104156,1410.25472296073,982.307128791121,2668.04883725063,-1303.82981548566
"1",1828.86648251913,3177.97254699933,-4146.47438805079,-1074.11578199578,-1607.22026176688,-758.642237097779,5061.50050591335,-187.301002332397,-3148.39289410048,-864.6806714074,-2314.10785677428,5146.2717853211,989.395491272117,3052.21642570855,-1552.54928737329,-3146.78374875695,-1106.66011434253,-4260.05333435215,4010.56035958028,372.767344870892,4762.1767248732,-526.233037320318,-1872.15407092517,-1581.3751964688,-5209.54837744381,3024.82354661999,1427.7875223271,4466.50133298168,-2017.41039664018,-320.7968475804,5167.44858499774,-1378.75806293991
"1",509.615661274388,-4008.91786315298,8901.12640951599,-406.627639307249,-1359.1945431519,9399.98432253003,-700.824245596445,912.923988792227,-5455.44657196789,-1449.39864596122,174.579948320775,1490.90098134993,2923.52396097802,-5571.29633905838,488.045466127386,-1527.45554918828,8903.69581930806,-962.215962066333,378.890062472003,-5195.38039580878,3002.13480142178,-22.5952711544214,996.965456008541,1141.66369593326,-4771.01662184888,499.626486172295,-5373.39604672352,6530.38492411357,230.766952567863,1310.39662529129,2069.18292752318,-5453.16059455673
"1",250.331480688543,-2985.41589619726,-5715.41454657272,77.4684198259645,904.421906172573,3345.65328718746,-5621.49860058462,917.867056868633,-6049.92722872972,1905.4717030082,472.316302617448,-94.047093643669,8261.54434427202,-4256.06367983776,867.917248391583,-5991.73949436331,4066.50753150916,238.202679870859,793.921778912734,615.276104229661,-6361.2049956083,768.806611435516,-3606.98301324747,9095.78962404404,15.4515627854414,1071.3374788582,1497.71941228567,-7186.44835455131,1033.99172360837,-4522.04210267504,9670.2180253466,-152.28527114037
"1",800.966573005216,-2390.2770841629,-5711.01668871024,-1339.99854925814,8385.18275545149,-738.140622040407,512.941471408029,-5448.50899305024,2970.50971456735,-47.1488440661803,809.100424248916,-738.423468305568,-4460.52781120129,557.118509436601,-2921.68411456537,8506.04964902727,-552.490823563458,1335.41471395988,-2620.6830128722,-4651.67524572499,372.63483912476,-762.870673006394,7420.78215401628,-2404.81817697517,551.228734974713,-3953.65217058395,6767.1070022418,-278.967635320373,329.380535881649,-5184.82145730926,3106.85205043187,-149.651252809656
"1",209.552509955073,588.867403963292,5282.09709123421,-4170.5089112662,-1799.96111983349,7779.71965568281,-199.320849656189,73.295518284223,-91.0439924054834,-4600.70744490939,2654.05698567403,-237.49465420681,258.346234091659,-469.508010870374,-4388.22240255451,-2075.99317595927,279.633038178759,7169.40510882809,-2918.93385408232,406.535036339078,71.462447156728,-2480.1710970241,9242.82116078445,-1138.26187947422,515.453216022335,26.1141192021494,-4100.55472898225,6035.43654378221,-237.331555451622,-1010.40473316945,-5246.45299218844,545.307588980011
"1",310.894201540187,-7551.02471401012,460.528837878202,826.21335953928,132.16658834758,4660.99708198447,8762.47185891107,-2161.72737104837,594.594949576152,-12292.0682735226,-978.981027358162,459.20858496296,3713.35458063105,10530.1411130127,-1350.48909385396,1600.80036571133,-9618.19414693741,-3388.01389884447,366.262955074462,-27.5044018850869,9675.19676406863,-537.261235357093,2778.71600821928,-5322.10772465101,-3578.26499120135,381.530063376681,-5342.61313314518,5719.63786202524,74.0649737305195,4052.7562883947,2794.34448359324,-2916.24130626891
"1",-362.959534310111,-6629.18512774288,4009.77656139839,-2679.2802502279,238.392909814887,-216.01988800942,659.215348967393,-5068.43656388852,4329.40546601811,-862.657851471481,-5210.66759066966,8295.26220362846,-1208.48507775924,-11753.892092725,5653.82137640972,-475.689014908448,651.889096634458,-4066.32225419461,9697.71298036386,1165.92482485974,-1988.16317055386,-2987.80827924291,-309.106310066111,2288.39966126431,-14563.8531248361,1684.16804622445,6079.38538352295,10285.565664268,-4072.87000397548,-171.395251631301,3194.37163979655,-7146.39175356266
"1",-3482.32129636888,-180.147192652179,-875.091554099195,3385.8296638445,-4809.38611770552,-34.8366760238117,2316.60558163005,-7843.62035238563,1755.96117684209,1546.41611902607,-9555.67378870041,3501.6470179255,1036.47036748189,-7051.25811187862,4726.69317407156,36.1993451548483,-4342.54088886522,5268.76669186443,-1155.86842348587,-949.532283650705,6121.29313953707,-2818.56976206908,2762.20784673444,5998.92430634999,-3679.88979460426,3598.99001129025,3680.71095255876,-3705.17485582245,3767.29620873962,659.668021129792,-2637.2248960974,3136.37839351385
"1",3474.53695682998,2350.07280672811,3061.65500348111,-3617.18468386359,699.217555022382,3342.81181426173,-1668.79608050668,351.100050554253,2890.57847823655,-3133.02893138211,518.050972212955,2995.42086772688,-2071.71344527996,653.611017722846,3151.41023674092,-1546.20918034954,238.870100857285,3802.56111365581,1294.5763999844,-851.607248391387,3777.0173743658,2860.077211311,-893.673814976688,3734.82689418251,2297.36459293541,-871.47511062047,3910.36645441259,2242.27799853399,-971.85663557009,3859.3171762323,2565.0270787088,-772.269464755238
"1",4001.77874389864,4291.97810959746,8953.80652302134,-3697.96792977832,10635.3287859739,4261.93790626631,8781.60622186601,-3085.16937279586,-12865.4011174346,-4034.24604334029,-7380.098706613,8090.91909078307,4951.38737797883,11291.771390734,-2317.88810949744,-11335.9755558715,-4120.3962901862,-8504.40506025172,6599.29737001637,4988.36596426421,12427.2489469867,-1561.54177938295,-9372.95005883966,-4480.06482912244,-8402.04726001813,6573.48978678579,4883.94012220932,12409.0457246008,-993.976418627101,-7056.54279147999,-4634.68833944283,-11287.4936051617
"1",596.846803625196,-10498.3143309223,7172.05189363348,3271.74154889752,7834.70597445295,-214.143697301617,1453.80804052516,-2060.55026224944,-6147.84664209128,-3275.23046301967,-12403.4328013551,-2470.92374010318,-13150.4386468801,870.25688482578,-10759.9016819476,5196.71243246453,-6711.96111613041,9665.90814124599,-1337.69306614911,12984.2365082089,2007.91419422388,13193.7606295099,1748.48665894656,8993.21604357476,119.330023510983,3001.515633459,-1799.85078685306,-4613.14041921509,-3131.09449400628,-11409.4061191216,-2756.28588355079,-12778.0210260463
"1",-13979.0028165053,-1372.44609882538,-1684.43999705666,-735.42556485103,10115.7318153956,144.299807840555,-9617.7383585152,4207.74490998646,1495.36702424027,-13735.9496203329,-908.996652191078,2149.41878298177,-12265.3495557624,-3390.25860142865,3703.23525239808,-3492.29523021525,-4182.31437515766,4544.72064148777,6474.54733470114,-3398.01970403284,2614.69632094035,12567.6996893681,-1343.10525634272,-2258.79838311966,10198.4471165074,216.998367542593,-8826.58521078927,5143.43689337876,1242.76936287939,-12906.1030151201,833.512100842624,1715.80638395745
"1",2772.80311428175,4683.79998346979,-2032.51699572544,-357.758482052793,2283.50672945058,-3445.8375519799,-2267.50871096804,-105.92392546462,2634.19394816005,-510.435558995858,-2595.78145031731,-281.702834665912,2886.26334869628,4105.89590144306,-2153.58923997454,-258.380516260434,2944.23706298043,5167.4060920607,-2079.07160014895,-328.72357764176,3087.8482035221,2524.14801494263,-2516.78325101006,-392.187540584072,2986.9688526578,2608.40748134526,-2478.18251765061,-385.588352024999,3142.10082142616,3627.23738876104,-2331.6647640109,-293.966324944062
"1",3206.40902567648,-2496.86241233299,-4355.32657283522,2339.1085507804,-844.283169995245,3517.7060672858,-537.163788627171,-4937.50511516021,-271.227341404673,898.85647485344,-8844.04406333288,1276.91934826834,2445.70193026079,-609.163293787361,3525.09047838509,1167.60235625836,-4481.71293707622,-406.360749135365,554.098995223137,-5576.14472011352,4430.31845913768,2749.24252805831,-862.849426786881,3129.70575589824,-3834.14037427188,-4789.10526881613,537.281465669318,-330.043482954652,1381.17168719375,9032.38940794844,-215.143692055983,-835.598637140851
"1",1947.81150800224,-2594.42648563405,-6079.58974897872,107.938571503802,3067.23530346967,5802.30894297436,-3569.40224042465,-938.065402667138,355.225583333695,-4591.17568253166,3269.76157593123,3356.1692868136,-724.727723050831,1277.38520299168,-6564.91769147976,-4610.94843944266,2047.98074492101,-576.527434847612,2039.62603492843,-3347.37006283364,-5894.15007574874,911.558694255576,-100.589343428367,1965.76311071404,7567.58388911224,-615.358313835818,-850.463528501234,660.827247343205,-7552.15328694271,-2329.80869575327,2766.24452570737,-423.278903909784
"1",-5131.53537752947,-4570.9608680199,-7786.45129984331,-3793.54075366384,2543.72853597709,5021.57724939384,4467.49778260161,-2707.22005744485,-9879.8249635243,-1439.19383004295,4855.17762769845,10587.5554358065,948.0070217648,-8830.02584259122,-5180.98490579226,-3045.28021712533,6511.76090624765,5045.96687860987,4709.345320282,-2418.60586666054,-11233.2973988392,-3241.2568510888,1110.99211931072,9248.59959418321,3846.11019615419,1630.44234931958,-3099.88637570476,-10541.8682269359,-1618.44605728902,3831.08322726963,11191.0702428809,2295.93558584147
"1",4307.40655720627,5482.02469156101,-3867.24038435983,2586.34606951468,-11189.6773205891,-3644.08819727612,5147.48549681143,1857.00187237081,-4023.73473573025,4507.57584402048,10264.2065620059,-2018.7768035583,-989.96856015538,9875.03146715817,91.393803523007,-9846.38068492531,1381.76826340431,3539.17986204757,-5206.64718823854,-4250.5786132257,5134.60425865893,9678.79109576383,-1847.90680000923,-5581.71100397209,6299.11942698339,1524.32426876224,-12108.9345121549,-2988.24399899895,5408.33264718431,5958.74526344538,-2653.79116304813,-7531.28969036824
"1",-1090.92217242351,3039.93840206967,-8613.31593277099,3119.00129233206,5932.50216119751,-3331.23671213597,2109.78214451315,10471.6055454476,242.710916202844,-9413.30798641109,1142.99666657163,4476.62619653611,-1970.04763102666,-4347.61477535391,4008.15141074174,10430.8545069258,-889.886972014973,-4356.13232059413,7107.30730450385,1567.6698174895,-11377.3628354411,-676.775238975103,2839.21562485523,-8911.27353905775,-4414.0401558392,4937.96321100422,7662.3859906366,-1820.36970554467,-5209.63601303382,5765.89167949549,1732.62939605481,-11839.0321535439
"1",1870.36409468811,-4218.44089685628,4423.99488605029,1507.05298601416,-4025.89644863009,-6751.66500729757,6224.86239616501,10313.8771289968,745.008569051099,127.487132608814,7786.59421155835,2786.14603953002,-9403.26455229602,-4611.59874089167,3939.8477319418,-8763.61459780207,-8014.82773472967,5571.59795461426,6515.70038714518,-1361.70813564801,4789.55829026313,11236.0069850955,1777.74648512817,-3031.07254720499,3667.93370649984,3260.62555444136,-11894.6324231901,-7110.95893429414,3598.87881509836,-8614.72764912042,-7679.41427890716,4602.35801553846
"1",5296.93119082939,3972.46437176742,-4613.39370845953,5363.85603494546,3986.63830486132,-4432.58750331134,-806.267943375808,3932.12462917255,-4054.35825733651,-5179.70750268743,-568.077708417912,1439.05922280736,-15344.6751883152,-2691.45492644175,832.186976532969,802.822143466308,-13614.5976207372,919.205885254846,1429.05505811639,399.882307466569,-7148.65756276129,6345.28817321671,1654.20337329424,-226.417759376947,3277.11968855883,12897.549235209,-399.357141816287,-581.063675063345,5843.99824253062,6577.84905140451,-4056.21811255137,-794.069284126369
"1",4481.84565923622,11092.0001671311,-4852.95815484283,4144.58797578231,9496.46705963778,-6647.36378862073,-1008.53775326734,4535.15893716768,5938.3881139789,-8370.88100238092,-707.726927833783,1983.09450776229,-9161.74988473691,-9180.27887409669,1951.09946104959,585.328237928427,-11848.2702046809,-17.2648994696251,5087.01008969342,112.28355770904,-9021.37224003003,2890.56694535696,5609.51090220028,-572.016010373624,2651.83592877558,13870.1745074707,-333.958829416581,-1007.73880365574,4246.09209303132,12966.5086605748,-2936.31015826654,-1013.86829806158
"1",-930.203327611729,854.049390100902,-9439.02838416059,692.277639342137,-9401.03870754335,-1264.78547727895,422.114858984258,-3531.58342598637,4257.96509720968,535.949377232272,441.816703258425,6597.19323579926,229.27980678938,1154.142308047,-9038.21631372852,-2602.91594417828,-322.014684012263,2952.5563144802,8282.84343409641,22.311601215589,1411.19159633037,-9016.18068653048,-3014.76674795118,397.396769095772,-4454.22615873227,4737.19538512963,432.687799202645,1900.64019644364,7800.03512669088,311.037165044613,3722.51300332953,4226.57132465184
"1",-1553.19469028938,2252.1384796169,-6853.81186526763,8295.67031173613,-2077.45596322188,-663.185653770972,518.859814041811,-977.516713295723,-487.573258452291,-1582.09961597166,2714.82651960486,3203.41104871477,-2036.1136201709,-2885.08033675562,-2026.8426462136,2662.43122402794,4544.56886460227,-1697.64956808787,-3130.91410946651,-2610.19489052506,2168.62662997482,4861.19152763686,-1140.43256279811,-2588.48182929343,-1598.26567447242,887.432546763544,2652.62285574429,-1345.02236336226,-702.554119976309,235.070001802119,-348.002336703146,1131.43059251871
"1",-1090.27494865664,-2385.63814568028,-10037.5746343151,5732.36841124418,4053.02329932149,-543.748419148456,-2656.81734554107,-275.892428052775,-698.814934092768,-2242.16120478195,-1572.25988038611,2099.25469223098,4503.658883581,-603.466901385897,-2449.73563599992,67.9809314491967,-679.536288198506,-2660.38813124046,-2499.90404437814,2226.39476215847,3776.08207568802,-680.672735773756,-1175.05291729422,1087.2414097524,-1132.08576436999,-3253.49351907721,-2198.70326048665,1802.63597408142,4560.51296417682,-670.813020994378,-1418.24594946404,1599.33935152862
"1",1693.85589132601,1080.80962630588,-546.453169319641,980.867812253955,153.90065867241,-191.954659640325,1233.12040426434,1222.16174189117,-538.917803632053,-1484.97080922059,-305.415346659208,762.294881087775,889.340371913173,-329.348679805732,-418.992324827937,632.753560323026,-670.199735244804,-1595.48668607554,-159.514744195633,1537.65137137307,1034.64492959559,-482.075002295353,-1343.93858446346,-176.509830701688,550.467526527012,662.159465041761,-196.117155886258,-221.182429138645,381.205272310666,-675.657202084297,-1583.50105263273,-51.0642560638856
"1",7471.44990891962,-650.923241293139,1840.87045917014,250.814643838309,34.4440367825584,4688.35137719769,232.196693313439,1137.72535072478,5305.20599084413,198.0367151,1545.39261157148,5857.46800450862,210.43478716779,1519.73120563933,6602.61105079298,123.038822450516,1658.59546704969,6869.54923362196,88.2113896455388,1800.53318821772,7172.82194886776,-53.0254533227846,1939.25906071864,6768.92707176617,-82.6850206366958,1949.32583556051,6815.59071501399,-197.213813616641,1584.89397965511,7256.51063655044,-253.1134332968,1645.37460924065
"1",-11894.8474601723,-4876.14513020815,-2904.06700933203,1996.46391387525,-3401.31935777595,10712.5309720738,3480.55585458624,3399.69133835968,-4192.85905087993,-12227.4046542883,-1149.66969420259,1240.00972019225,13552.2040628471,2792.2466234097,3311.51618504169,-4131.35966986767,-12731.3608329559,-3572.80446687208,-4760.16294058697,8482.51770285984,4395.12086584537,11826.5789198871,345.901533443638,-2484.45102419456,-5091.14472551343,-12202.9802072704,-1351.34461452655,-1954.42403828062,11170.1747803405,4007.34905615146,6870.57805722724,-2586.25478315823
"1",10748.573839301,-1865.20309870029,-7995.47757039809,6342.8690861218,680.885487724968,-13986.9484369052,-1679.40040567139,4371.45245485371,1774.27922388922,-3603.19506742267,1749.63415934375,13150.677402386,-254.609097297025,-12810.1658882183,434.971311053789,3998.35166772115,-357.440841106526,-3847.80569547945,601.744717706473,12071.5389820323,24.9571633162203,-13624.5445121415,-1324.05108692209,4570.37033456492,3934.53924823553,-3104.55678874258,-4015.27141493827,8693.7258005922,1344.69694209727,-11721.2162385427,-4330.83288391119,5224.97973771059
"1",8366.17178944007,-250.214231682105,-500.603829410064,864.207110156748,-9860.57496393555,-7494.93510145878,1195.82419630067,-10681.9809129267,-6430.49652698382,1312.38076235945,-10324.3861629181,-4612.6823336798,1810.44729494377,-9233.70202415823,-2315.22195752172,2189.90840389977,-7062.68322936403,21.1999872541054,2741.26401314188,-4040.67182005909,4269.1664395316,3187.24472435262,-296.505692057331,8603.87537729759,3365.60081483766,2560.34943015448,11204.001224918,2432.45767419888,3824.02982837576,10597.1039096012,1274.52603857794,4008.43395837701
"1",-818.620351268264,3512.82399869679,5718.13544721796,-6519.01963591159,-2367.17760305391,3060.94251071578,1497.03601371951,-433.903493600707,3614.73363596481,5430.20126264935,202.649157394271,-370.678286096827,3802.46981136922,380.642857986312,-5778.6845272932,-306.433599369286,915.375967546981,-6533.01197480004,-2387.82927448072,2996.75038302485,280.150167942967,-707.316427773492,3456.04136962886,5756.10646842058,347.661352475499,-2865.58633708365,2534.86697660303,310.905442781961,-7740.69513316057,-1791.44291641769,2313.90462054248,-2131.95260570365
"1",2215.28865387136,-1593.96516856006,1894.12105377571,-1412.46521258422,2609.43878787999,519.098053452462,-2709.77119580005,2447.30826736989,54.669265296669,-3110.87591543273,2458.81372831894,-8.12505925986495,-3317.86640529291,2658.20738514865,174.488250211393,-3188.83114275047,3011.10877289435,1025.79643900951,-2666.55246651095,2768.92890836342,707.561895356308,-2686.9205401066,2765.72484071897,1835.56147967896,-1999.40429964642,2772.21382180732,2110.53305942219,-2009.16685927532,3058.11706874981,2199.9141899812,-1899.39402084182,3047.3705193183
"1",-5600.40303244979,86.2091460097021,1751.30536407439,-5541.71767033236,-516.589033823692,2472.84417578697,5748.33157471712,2283.13455717008,-434.783679335638,-3370.76872292879,-2062.70614363817,1582.53672786361,1298.37142758928,-1413.27893035914,-4539.32151150444,-594.564847769639,1750.48645924283,5641.34589058767,3337.27260155559,-328.940476852999,-4747.71179601516,-5200.34399304937,798.462265849896,1878.55643299949,1686.19119097714,-2115.19238036416,-651.487102486371,513.794405000641,4343.63742822244,3315.34434870382,-58.7766277397374,-5067.51326773476
"1",-10331.7309584301,1307.78683779284,374.136573145821,3317.25944562883,9202.32022227127,2729.43390100425,-1330.43816310396,2817.75832845367,10073.4392684694,6100.057066107,-1308.54255694807,702.962177276874,7573.05519697832,6946.34520032084,-1084.7070445074,-1812.49864650615,3533.86560593475,6164.81239325647,-773.13849660039,-4309.78726571827,-1239.12816986646,4706.46885990911,-429.775465740114,-6368.19934175741,-5427.4907543595,3095.75499728907,-146.200485883256,-7441.82858354863,-8028.90680860856,2075.15217609804,226.767623786037,-7908.67721130243
"1",628.248357931948,571.496578224763,126.994066903624,2410.79786478655,-1453.44775224293,-67.8413672176197,65.6840841416315,2429.03149871186,-2366.78087735378,5.20980991840987,369.31507932971,1203.32881535225,-2670.62525847188,45.1324056235646,749.709950144619,-218.242532650362,-2334.01332744752,182.355050178338,791.02364304017,-811.487265055855,-1897.72843245338,159.756695862472,919.561180816614,-749.822626236347,-1858.39441118233,234.746979625633,985.399845464188,-2056.0875151462,-476.594501625666,330.900582616688,822.690160544523,-2692.49317457118
"1",-4150.74286344588,3833.88467173864,-5505.87747649683,3411.89657707706,-12373.8916348652,1156.88189053425,-15637.9012643033,-4244.46268107479,-11382.8430391696,-5693.76097865241,-424.385448937262,-3145.27775075156,9335.53802104706,-93.7878486160112,16387.9226481886,894.094796919093,19963.1926420608,-2599.30975775128,17478.5478057679,-7532.66076257456,10757.6054344152,-11571.2757818488,3517.21613265033,-14453.9475844963,-1245.38326603088,-16214.1467118952,-4122.72919128883,-15474.8278700173,-5477.18162636482,-10911.3056302435,-5294.88612514942,-2945.49660163954
"1",2708.13434109081,-4411.48342740552,3.59799482429429,6637.75314132371,149.648464925447,-11625.5224761615,-2179.84229019314,4602.99552124266,10969.3795914822,-1533.72467640155,-13154.8608037226,-444.048255443992,5069.30918499096,9623.5810173779,-2025.10032034796,-12021.7972545411,398.160217506684,4631.36667122289,8204.68467243209,-2075.07904954473,-11828.1825939826,1580.71424139026,4967.1922993897,6747.52427358573,-2503.32158074227,-10456.3833563525,3082.6322713463,4171.97517613969,3187.99885701452,-2891.58442464026,-6278.83285290085,5993.34650823192
"1",-1468.05959781739,240.946210301392,9219.06080137155,8857.56297471408,-985.02047755416,-4390.47646722204,5846.88225606522,4.55230775174098,-10398.3529606338,250.526439319154,1631.92843763856,-10827.600984797,-2705.19483592719,4062.34761567913,-812.600841030807,-2394.2442007855,5148.91158977932,8307.09791900132,-1658.84911480909,587.285715819284,9025.8810974784,-333.763266445828,-8228.39576484952,2731.01332053481,768.767191137712,-13023.2691694574,-1829.61149217753,3641.07874069069,-3613.28690894954,-2588.78903313898,5031.84662052839,7415.40264538691
"1",-5081.03951201415,7504.02714571573,-2796.19131774301,-1061.11202886041,1739.6480186582,1975.2400456743,-5305.65764220916,2191.98761382765,-1686.67128021399,-5459.05651519218,1727.24880041358,-6596.50608989404,-3613.84640811702,940.376083994637,-8358.19533503872,-619.403516705789,851.459554137471,-7958.13546093619,1011.19420333866,922.93478111725,-7457.49712198753,3881.7183136554,804.875858105858,-5697.71841875126,7063.55700473679,306.108488842816,-3795.81938432433,8251.21808235102,192.720123212821,-4105.49815885417,7658.32565072814,532.940680628249
"1",-2708.93746645148,-2335.89043813312,6147.70025515204,-230.453475694757,-6541.71121507288,2616.79591663852,1885.63953907328,-1257.0034016833,-3136.24161541214,483.836968871273,6990.52404920072,-1195.76098939205,-7489.75775029184,1877.7492385271,2547.13583718609,295.39149744514,-3143.29393596136,-1005.07638324131,6673.57258736491,-246.768740686584,-7407.28459694596,578.194418608269,2770.95213334353,1593.64731525697,-3124.3859471822,-3366.89205625976,5925.02372987527,950.919186354657,-5115.66389800341,-1930.96068205923,2541.7007100621,3961.84834126047
"1",3100.69521023456,-532.63407979262,-7098.14561838789,2234.6885948345,2922.45276828287,-1847.53231257031,-3124.17775195978,3305.71953199109,4215.13469539811,-4283.33516390371,965.914648039261,7776.9892507634,-2693.28047559685,-3370.22310853264,6928.51748529014,-213.755076635583,-8301.38066991038,3817.51445571658,2338.50905990767,-5925.29994621175,-1346.30940263233,3268.53864889447,608.568611359019,-4339.17149202592,1499.89357803488,7442.48784219362,-2607.08487047837,-5314.32524613927,6199.27584225634,1018.3896360677,-8382.73694392189,910.211195702564
"1",6552.02955048295,1633.61680195255,4140.50000663017,-224.061483377683,2408.85438085609,-3850.87895267099,-6383.07689635325,5584.24348604623,2805.88133975896,2553.2981587622,-3424.25999305624,-7353.30517406754,4703.66223522055,2841.09399082255,3459.52098652736,-3678.65722478463,-7021.00026020006,5312.66112057074,2711.16959385817,2370.62596660941,-3655.5774661967,-6612.05190814976,5221.85171322459,2697.51836021991,2119.69921950657,-3609.32907716993,-6175.40811928298,6074.51109602734,2318.92383142232,354.507680647889,-3788.5289349072,-5122.58508838488
"1",-6358.84981783843,4718.59888253914,-1003.45693953142,3829.37947603594,3261.87059731815,-4144.78457367508,2202.36887917695,-6180.4736635254,-4346.3590923997,1115.81948152473,-9425.71947833992,-264.501368321582,1166.58101595515,-5806.22745009506,5154.0222008837,780.478666337944,-924.693537414294,9123.70362922332,-170.205137919222,2990.49129044797,8384.67938931078,-2325.28043854404,3104.29583273854,2356.1371391467,-4000.01886629723,2004.29327563951,-5562.4462602769,-4178.76205916373,1037.04594979451,-9355.60506844297,-552.750848189065,1060.59340370468
"1",1144.00276678822,1512.87990592712,-5336.8263944063,1153.98511331053,-2235.03130581281,3846.13005710099,4499.90281119144,-276.43325259556,8482.66947486943,3571.37770456459,1361.82757887249,9292.57004050035,609.60913842862,1426.50965829023,5861.58016593014,-3917.0451138436,1021.19372707767,1141.35746981396,-6925.99073132805,382.375900166013,-4415.8175257851,-7629.70335511062,1168.35576837065,-5050.73439377983,-2947.44362237633,3512.97680009868,-1162.1778228562,7177.39565969885,4179.15357882703,1640.34100624104,8384.39293398539,-970.578065752837
"1",-5374.61146274487,61.8649029239842,-1509.44711297986,2867.51666223339,1897.65440526565,-58.0291466270078,-7882.01457021584,864.669841332979,-9793.57084250836,-6251.04948599709,1838.63973181093,-9008.92654938793,-495.223185899093,2654.35467560633,-5858.89242535764,5334.18138393253,2919.50308664235,2457.37957460441,11961.1687899895,-343.878896316508,2658.44448774002,1820.49368982284,-6681.68304020833,625.373370618045,-8661.95631024791,-4993.29516940372,1185.02557638265,-2446.23273052686,7526.46480949636,2212.30051652215,2343.43886775131,3297.79435221891
"1",-2241.73240410631,-283.646965181107,4723.1754275785,-9085.6906658782,3110.55012610515,700.23027796482,1150.8519685297,-5938.98970415802,617.597575088741,511.006647525007,741.326821749532,-7806.99806388362,4528.35890989376,338.812203742461,822.781884767594,-7329.52014949156,3604.47164380828,398.928540563124,1665.83914269197,-1969.01422417163,-2437.48706733235,71.3086438837183,1892.13631281608,-3743.80904782087,-1412.49378350337,204.29834280486,1746.56592868829,-4028.66972275973,-980.768032034303,397.379048330913,1531.73217208143,-2214.50894429542
"1",-2686.65019916652,912.404898647363,-1372.53464460958,4252.21405404694,218.124972142631,1675.37514529539,553.337727169211,-1780.57362210411,1335.85128483435,-1886.92319419449,-2531.45305622433,1305.97593167761,-1348.31373407117,-2331.39354056686,1975.64165224041,2515.76519547671,-539.308048361125,2085.29838558429,5906.4539107831,1290.46541143017,-1620.13891932747,1973.961145021,991.948988754752,-5645.73536972751,-2533.40005393792,1863.40963308724,2389.02041562263,156.327409300801,-1571.41539166682,2287.55796284132,1058.39079111181,-5909.49002964088
"1",3977.17074284304,-115.911647303077,-1134.37556935074,6198.2230000737,-550.774064293238,2075.06473638528,3631.80087064523,-2447.22186970705,1272.23221946222,-2565.08264813962,-1490.74904359546,596.281763055926,-5542.85248633005,862.46803327538,335.865479959268,-3244.38886207844,3985.04128620519,-109.023779281979,-1103.45152541459,5208.27440727169,-918.82119358211,1843.36756618952,4173.04042285101,-2068.59427504826,1282.15345006005,-1365.80078802051,-1902.71006886243,767.306932855966,-4773.14115373484,190.334220921312,210.816563128272,-3535.63773605414
"1",4102.48303257249,1023.95561998349,3154.88624449405,-10873.6883861533,10039.9961239582,1872.50989302064,-7851.01310713173,-750.958399498463,2155.75774704925,-1269.69600280793,-7099.29476899341,757.497844112798,9283.57158342008,-4507.37844332827,-4184.32747712357,11493.8357003905,489.346728662794,-8287.85251563484,6074.98500626713,2491.65124676717,-5796.08982132919,-4083.1133124972,2109.45732411748,2245.8382943434,-7579.76856725374,-1769.78128976582,11877.3147748301,-1889.03799587767,-6041.71627811573,10439.0978206486,1333.13377817502,-8559.96983895502
"1",6433.87125610987,795.309330906342,-3086.21986310955,2798.2807893466,-13181.1851052182,6435.77843941932,231.704738837036,5288.9063930423,9051.86254640031,-5652.48503680351,2107.30152168,-14059.1860254489,-607.622313077161,1410.471559406,-6535.92647990258,10581.8233003966,-1201.30007589632,5297.15187414614,4273.04691388487,-5837.36912783148,1380.46936076467,-15114.7890599787,3249.50708320555,861.498218849904,1733.29052423645,12995.3357216032,-3699.62100390101,4504.83705760251,-2303.5107409005,-4866.86136405852,1250.77101413335,-12767.633267604
"1",681.795747283243,-5044.47822676869,-66.6852219854339,-2740.74515942447,-560.559049894433,-72.3749830889967,-1912.26757577311,-4414.94299382042,108.492783859077,913.451173167621,-4420.87278902364,50.4352831847438,2298.07327153139,-4138.1274458962,-152.87147361924,4556.51396744392,-2656.80105464608,-556.117749668118,7776.91890395182,-797.092368681273,-1097.41645546726,8063.45294392576,3.65806726515707,-2066.83045003947,6419.28792411201,541.672010480336,-3050.02680660118,3564.33730124177,123.890643983762,-3084.01660364173,-2335.52938876971,-322.204495681467
"1",-1052.15303888899,3042.65639052095,-462.470318968358,-1596.37977876676,-1604.64424213406,-315.774864854973,-35.7985712784255,-3090.47301305377,-87.8052858201591,3521.89532724986,-741.082176371111,-1191.04759911372,3425.17536685381,246.661374683289,-1676.24386627766,-2462.01027351172,15.1302475479913,2942.20587519411,-2160.05426412103,-572.480346830898,4625.67971408523,40.3877506188202,-1744.0245067368,-1898.40271786492,-142.325861264641,4428.25782764159,-906.6199990309,-2023.7503401133,-341.350618246894,282.118503614676,2332.37581715387,-1812.81896637017
"1",2747.14288780629,-486.147253728117,761.835573002299,-2157.9848614215,380.411036184854,886.265174122552,3200.15544344491,-1806.6435765192,31.5869566450682,-2053.51033378634,2302.38998407872,316.480551040502,648.216102951205,-2102.86334682175,-194.820707268406,240.913642019346,1054.41968670308,713.46448406539,-2503.42990635204,7.97312679289862,-1223.35383951164,3862.66730819168,-477.244640022198,197.491276466095,-3861.78171399082,884.578791818652,649.596451075122,1157.01014266218,434.89689373326,-2327.03924409098,-83.7804656638768,-531.395932703369
"1",5744.29882721614,-1474.28828361113,-350.60875356591,795.248363709793,6968.32500474193,-609.506981088796,-2082.19408310536,4214.40124025647,579.78039302117,-4202.00034342143,-3935.58657318533,171.631242193584,1507.05535310323,-4614.07657101199,379.597278414948,8480.58413033719,-1109.92783446164,-1192.34912287181,8227.41836338206,448.791740525196,-2524.37866684456,5093.40692676596,303.597829069929,-4464.72262227234,665.995780724718,290.906315243503,-3954.35516192371,-3227.08906593233,292.977432893002,-335.423317887252,-3744.23375746095,1118.00115923607
"1",4664.69259800541,263.623980133418,-3806.21302894366,-688.986720662545,5714.15759503719,-65.5732892836298,-151.684231890027,9390.78020155907,-1110.2983988377,1971.18347985942,9541.68354083519,-1959.40442272822,2838.91189715536,9928.06277451211,-2809.90099474239,3648.11334202602,6250.00770414418,-3957.16443501164,3293.16003668233,-62.2764554105709,-4099.06821809041,2253.28660605521,-7033.18347307567,-3156.89687137903,1061.07946157849,-10006.0771079878,-703.726922556049,946.119502902663,-8456.99150304913,2159.25956586452,1103.86952731444,-7679.85638426224
"1",15016.9424418425,-8042.22548365788,2444.55715783491,1394.26141114376,-7352.52347072703,126.715570137591,5612.88328652637,-13254.8851404698,-3495.04700006054,588.906610253025,4921.60247738982,-17815.294105675,-1843.67084096526,713.778029581134,2313.35936060476,-23649.4968995173,5101.22472273183,586.401650801123,1683.61751197557,-22727.5662554729,10100.8180954371,130.383329931913,1163.50532379569,-10552.9495053824,17403.1554508641,-2826.74588095288,121.384510721857,6137.4299233011,17827.6127512233,-7127.67710314065,41.704212879779,8058.09249925414
"1",-15859.6132630851,3242.35022164682,-4389.16465338901,1987.61495805614,-107.272000392788,12748.3580223307,-1602.00961245989,5017.01981038581,-5442.37059764806,-3429.00709024697,706.667686888395,-9022.82683426541,7458.30479432267,-721.684717976948,5966.03138203015,87.4469688536062,-3474.36869373107,942.896157353266,-11400.7344593082,5255.00481171684,-396.835456925384,5938.9757855717,4300.00426191857,-3285.04436999939,963.555608592967,-13243.4273849262,4253.3248932386,-263.35808618984,6750.04946035444,7215.02026302314,-3603.37605870715,1319.55176275818
"1",1387.20108986834,-4455.47945270276,-1329.13486756492,6264.97426661133,285.518130595857,596.736460697039,8080.38278971841,-3407.51052652669,-512.349224876561,8276.06709444768,-2641.01207995211,-4680.24956934169,8206.29216185086,-1151.05641032278,2838.02477635416,7601.64470327525,-4897.83826849824,2737.53074409268,-3862.71300836239,-2253.23861859925,993.081538808703,-6563.39824941248,6516.43076005836,-50.9515274495907,2905.44402392671,5975.94133251155,-4892.04459365802,1009.8765741551,-10386.1513536488,4412.99105040193,748.901539393058,3444.28868756709
"1",-4073.46080459598,31.1283951496802,4939.02030904346,-3331.96478840917,2476.98070245019,6456.81388668546,-4777.78898117314,-844.163811358962,6879.13410089606,-2165.84673333393,-5184.90063271568,8004.19102373096,332.970581797731,-8712.77952196396,8080.63574100578,1352.87347623367,-10425.965268679,5951.44706210724,2230.16773538468,-7622.68225189972,2095.52162173985,2907.76691608975,-4017.20208093494,-2469.06175161859,3570.17507067389,-395.106254852411,-5310.85205795732,3780.28307175763,1086.01643450958,-5173.78050636736,2215.81367173267,5300.57173554951
"1",307.013428956488,1947.35196518258,-980.742713906493,1455.79471114126,-753.790212464404,-2439.98313675201,-1237.16395249215,1094.29645297548,3620.99130963009,-1141.67669109443,-2931.90386219735,-763.997950690164,1287.64315254106,2821.20190862613,-223.342181974981,-2448.64323834876,-834.019718451362,1005.99631139952,3521.53444412742,-1086.3182044588,-2847.31530514886,-835.895647793484,777.995732721489,2808.38857102374,-438.85015552118,-2882.13335348491,-731.378217282703,958.409905612627,3245.70387306368,-775.892669817016,-2749.46346302252,-507.062115821704
"1",-2536.03467593542,-990.182556520622,2689.90257519241,1008.50381551411,-350.830903063145,3032.64171973974,4596.03909252623,-295.044259746583,-1140.590772638,624.756352030337,-674.409438695978,-3326.10830439882,-2534.17123168806,-1025.46066479854,-3114.74361516896,-2630.08818793678,-1738.69544178342,-3233.14945916321,-2766.25906407124,129.880012946497,330.762219872004,-1926.96733132898,1509.1546875457,3978.32670110428,-724.206148883136,1796.23501719545,4982.72618211993,-89.2666682259816,1455.81375019673,3130.79395945852,-916.17382026568,-3625.60170241416
"1",1212.72027230254,5285.76986449106,554.906568687631,681.586841274163,6013.01898086403,-346.03099418915,-1036.05260378671,-1076.75964650549,-1502.08113300732,-471.022034502019,-2143.0960797483,1301.60456748287,4888.41805271569,-828.709056320632,-1320.24855770195,-2352.69922502975,-653.564063689024,2364.71606206119,-1534.82890295259,1710.43099285335,4262.30921768319,-496.60360539121,-2357.47904379469,-3565.23764065853,104.502436093492,4690.2459701469,-1367.32139296534,277.749387771176,1389.66441752542,-1461.39797432095,-1008.79319637793,-3263.80387007286
"1",-1598.70590663975,131.824093445513,-3143.605300629,-11378.8228235135,257.118681028133,-32.8444254371557,5438.41410882362,9559.63137799562,-1416.86779505129,-590.615541541444,-7627.56060555489,-4254.37240029035,-323.228066532301,66.8404188809694,8110.62197841277,-1264.92435024688,1410.19339917731,7903.42165814263,120.702194881903,-824.295790983259,1466.65757083696,8822.89467512741,-990.12547666897,3072.18073531204,-1166.96399729177,-4298.84815509085,-1514.35384106729,-8123.60109786107,378.540015616872,-76.6550027115956,5733.63126224923,9452.59882190658
"1",2427.07465038389,11739.128856981,-1845.90192201577,6970.20191296556,-3910.98010675187,777.615698237979,-6605.74500312282,-6267.80226951186,535.414471770746,-6151.59431568114,4650.62173858749,243.512003281915,2632.54719862324,10575.7616219151,-2296.53716490249,910.886848076064,-5757.89713846638,-6028.3253305198,663.867546985217,-6262.16227281967,4194.73040061068,400.474016384984,1800.79114050965,10222.5557574317,-2246.28492286094,1593.11523752244,-3132.37346023799,-6394.11733855314,679.604879595615,-6883.93753760188,3062.35116042452,390.995912587085
"1",8988.41472527232,-432.16219190333,4038.92022981153,-1577.37107546329,-1707.46692453781,6958.78918034379,-306.9465345137,3515.8171402497,4201.5233304416,-3328.17248426381,-762.450237635642,-7734.67657078888,-1714.76718837991,152.305721601325,2641.88321210484,9138.14686251228,-1022.16080142956,1560.37642643267,-3570.9798692728,-5429.74183140542,-351.287209466387,-6324.42883472451,3278.38883194779,375.502990963419,4593.8372687924,10500.0082250307,-2434.40526587707,-755.185485195884,-8695.59255708977,-5587.20193461714,-175.950210550586,-1593.02433373495
"1",1684.85530116166,-5177.88300886174,4900.80318543068,-4739.45403440451,2242.11481807243,4461.60237172249,-3245.81670859821,1734.2222872468,2446.72178035507,-4459.60068459325,1804.9164171216,1626.68543951358,-4425.34816134449,2106.35396359441,1548.59328220317,-4288.83695753542,1724.39874398218,1100.21761982659,-3458.19247321352,1722.02514112967,1672.59260491152,-3880.7914654204,2028.56603584152,1527.25142713651,-3751.21359887006,1713.22977396196,1881.37206514203,-3984.95489244435,1632.61303145933,1827.40152953019,-4119.76154036823,1598.26379960427
"1",288.39410650217,597.111840857018,1650.49169378461,1260.06855116199,116.574144682931,1352.55887394242,3579.31879938095,-2462.11182901601,758.031671831446,-4786.31204833509,1294.41429178126,248.983517703033,324.313502545771,4182.36898775168,-2048.11700499109,1022.0800519674,-4597.45276966381,838.149883835754,318.559172583071,736.816935104789,4003.33635100279,-2319.85017844458,613.302841513738,-4893.84769046328,1600.29713763878,263.452766027959,1128.75808331467,3841.14941248075,-2421.90230033738,833.608663470401,-5020.59885508635,1246.05177300918
"1",4619.55917376417,-4331.81880980136,107.45332002083,-2779.8988071799,538.869863212524,2075.6130129761,-3485.09842467587,4850.20559580797,-4443.74991223112,797.499271141476,2150.21276202649,-3441.33625067255,4563.19091620618,-4261.44891262636,433.048300306616,2534.23650270977,-3814.75470724321,4541.97777957234,-4040.923126075,366.509245914451,2701.7961071262,-3998.67252207915,4352.85201346743,-4091.35736049969,272.991886924111,2871.84073636901,-3688.8010636762,4269.1050561755,-4009.89916540504,459.617263495721,2316.79770214099,-3678.64696120047
"1",-2266.86498178815,-2144.25385607666,177.854720919617,798.446518064265,1572.19888378554,4478.20319547491,1977.11419160809,-1664.22597566563,-795.450681581987,1264.82404810681,-4939.89162186104,-4206.20530326063,1623.88723281251,1454.10368685609,-35.5898788196979,1954.80272238322,4702.92199526479,2015.28922901658,-1686.82897460765,-207.907272995642,1226.44007955888,-4060.12698633187,-4142.75047818977,1171.82070044567,1728.82179310491,11.8413417797958,1183.32925701441,4150.38477430274,2073.97330751685,-3080.53368365484,-2796.93051134434,982.992075895569
"1",1611.9417008402,2471.21848388535,2216.18745779214,431.765390099688,-7185.30330146741,-4126.48981374129,2896.4320556185,1405.06561452731,3211.28624766272,-7670.85047978336,771.697043216651,-162.108792417843,9484.07670719054,762.070361041167,77.132586818401,-7070.55657289526,-2371.69542577786,3050.17410754435,1290.02012285025,2940.20903296176,-7084.62869882565,755.577400394147,-35.4957608375085,9369.8373263958,469.352313727467,43.7319204983839,-6314.14797494072,-297.272667357638,3392.88758979962,646.448539028039,-3476.38885083006,-7916.08366389425
"1",3369.95304238437,970.258269515697,-6714.47632347436,3742.91249701354,-419.514953529166,-3682.44272805223,6701.91885152106,128.799013020043,-7195.70886391279,4453.10176593139,786.917218821925,-9398.92993921478,1392.93265090857,1377.93096386071,-9035.56037751366,-1258.14490264961,2141.5951754302,-5472.49905293054,-2741.93578639754,2394.63928511027,-1059.19364281127,-3406.22294695707,2850.48118108074,4993.57067153191,-3430.35067643449,1065.80953034654,9489.6117400962,-1654.29089592473,-4289.41618655854,7245.51196554731,93.1485293563258,-7848.66265354857
"1",-1799.58250958145,549.294889447263,479.821035545479,1751.11619069863,2388.49543807805,2183.244745693,-1009.63243407938,-393.726179403493,-585.745553729371,4002.93771319658,-387.129807001422,-1306.08930254324,-4620.05019043948,841.797050013701,-380.58045294421,2091.75743074739,-1224.30925520444,-1854.66340777684,366.713489917321,2707.65054547977,3762.57757914418,-955.383288214601,-406.278034605903,-1920.27440075674,3271.35248852835,-479.017239878436,-510.221520553292,-3958.58111788461,-466.975857302845,-134.139736718927,2076.62876293027,-271.725034140262
"1",-5414.64889528379,4854.49434607209,-389.671717360597,919.682981591441,-4835.08110657367,8323.18387630835,277.769936853166,-5889.60441156829,-165.065276768156,1204.45726345581,-1223.5476434058,-4790.64931548807,1312.78463997548,6158.14632813639,-4048.6835757649,-1803.59275170391,8341.82605288695,-274.251419928775,-5638.97583832014,5408.95308445829,874.781534154395,-5307.56509872992,-1682.00391168212,1196.01669272927,71.5607008609088,-4771.51942611105,1066.11096921163,7128.62049696863,-3723.63345774817,-2024.57771269713,8383.95092780576,-276.06492475018
"1",558.678610351696,-5719.40783897431,765.606342247849,1166.242554266,580.711575581967,-6516.217336932,-2519.8145714035,333.53632719461,1923.38740283008,4022.20092365924,-2125.15231144835,492.232024762555,-3781.57119485203,2935.19283439032,767.526907321062,1532.00040713503,412.706569983135,-3218.83392430432,468.222063660464,-2940.13939855386,3325.50605400512,1011.12809765651,1478.97593545038,-259.878405617227,-3513.71179018581,453.786444895256,-2669.94833371989,4121.80618949077,838.508506996252,1820.36506112178,765.151172645289,-3005.1745155241
"1",-297.296069719058,-3180.97099751215,2220.81509768809,-428.556873565561,1975.36678715137,-1009.62728384615,1712.30237625565,485.117856537763,-7.06511988750138,340.476625202876,2885.02133271049,56.3512936079912,-2527.21612075806,1075.07647107924,-416.937205541358,-442.545088825918,-1462.13715672152,1592.09772666356,-2914.44759889051,-632.061080965233,33.2825614107988,2420.8936478208,-3411.34853954354,803.309646452127,950.478885340323,768.561335592663,-432.231894076607,2476.04929903251,251.837526676927,-957.222556667384,1090.17996276166,2867.02100383632
"1",8223.86852552564,-1532.90788307134,-6295.40455171493,-7930.72334980879,8772.94415744928,-707.835753273324,-9708.56233094514,4067.5014078182,2213.07151743268,-2148.12365699405,-2356.14825593914,-103.430405234453,8261.03738588458,-3346.81217530712,-4931.83792759949,8444.51069022382,-1490.28658324575,-8456.05262469616,7034.06137235714,450.304872710567,-9454.9548561469,3445.60074583992,1977.29525473785,-6679.47947683919,464.395862259936,2813.15638233579,506.909394047787,-3774.95998007788,-2076.76207551112,8512.87029840678,-2534.22881165936,-6093.13095925795
"1",739.6249459171,3541.60817255338,-6708.25527760864,3914.88815468004,2010.94634293871,43.1111074356301,-2740.98216737622,-691.61608234946,-321.190894981208,2373.7118202994,1031.0011021426,-94.9354257587535,-891.387984640133,-3215.88600358351,780.254079275851,1108.34341598697,2786.35161656659,-138.530099549067,-2904.78922070184,-515.828739255835,214.712021552374,2653.77065507173,736.121042209885,-1551.92319491706,-729.820728110656,-2359.04295074628,1833.30800061275,1159.99419042734,1591.15935198358,-604.390153071047,-3051.32300563143,-79.8642688887242
"1",6287.02577316335,2594.56868267356,6623.37271083928,433.918254188562,288.158591465786,-4997.7644643246,-933.070022438992,-8908.49481533869,1250.08498554927,-3919.16375536801,4530.57911305522,2460.05259731895,5864.29659663832,1795.63468117197,-266.958124264888,-240.96046396232,-6715.70684687581,-551.831912645642,-7381.08752837904,2341.27194706122,-2196.35444313477,5291.96441310274,3202.58430429615,5396.20088661048,1217.97944874351,-2141.24029718369,-607.77741043017,-8285.28978391419,-175.098268510779,-5499.37284464746,3768.32548114258,-9.92517807326803
"1",10159.5952696976,953.161477674838,-11473.0902966305,3063.65572026754,2416.21928786673,-12295.5389658985,-3660.65265189185,5808.14513500727,13618.2400915699,-2976.90537396912,-10900.871552552,5083.52364409037,2603.80958322684,-5353.07838408007,-3810.60479120808,3628.34265521814,12283.4401124803,-1202.94051890599,-11285.5970156584,3113.00316242604,4171.60697917203,-2562.86791679247,-4028.52518340461,484.061931365137,14683.000213755,-1248.77787091409,-16977.7891222786,-22.1696506936169,5608.63274291858,6076.71891541046,-3997.21681856915,-5785.47867272487
"1",4662.74184505453,-2463.49047801602,-4159.45238960207,-7098.54044701817,2239.03890915455,2181.00083851484,1224.81785373854,1638.65945648144,-873.874261265675,-406.278670657329,1012.46148867696,4228.75555641974,-1866.66460913855,-5812.10359751011,3522.38392308178,1165.69022774755,-2650.05545194651,488.79663348059,1098.16951518394,4674.8884703808,-1633.29575566848,-6869.84172954196,2747.70213104122,2188.83795759799,793.704163469484,-1169.92060879185,-3144.39165996932,3762.3302531401,390.515110792272,-3306.48020972786,392.334511960494,1854.5576283371
"1",2835.28666493473,2186.53182938066,-929.287409822499,-46.9819284359984,-197.021454267102,1723.56124155168,-7598.74910258289,-120.842214298205,-81.4295136758857,246.650686526025,-895.973002705731,3908.49422085293,-802.431118134748,-225.02383829293,2344.28852012377,-1796.69752118796,-285.34190600776,-12.1287233718821,420.086799093924,-3626.611746288,3020.92897929847,-939.145002439883,-262.808928382686,2819.34031699552,-680.421556025402,-51.119836458301,55.7522101137293,551.396752031222,-4595.02579824313,1383.78528001973,-518.258544879312,-301.176464805083
"1",375.65569058597,2180.60814327721,716.715280679439,1577.60816579252,514.090716742912,2201.86539987357,1073.34113308127,-3688.74615960741,518.779596253843,-4244.39372199434,5673.34151560151,-338.703542014674,1851.90085471536,-2180.0421615425,-2495.06002303245,668.749082076447,-5829.87527585122,4219.79357448051,409.494283297791,622.366221184452,6162.72707029216,-2386.54723109589,1568.26793218664,-3965.73445250257,-1420.81892095884,499.765739726059,549.543747375625,6281.1315010553,-2658.52574549317,528.221563034406,-7328.76311720826,3048.69689496277
"1",241.184516302414,-1957.47887590108,-49.4574076677078,749.460210973392,47.713978028654,-202.717936595486,2115.84700047894,38.414899265501,381.01286037982,2322.54488162957,36.1249073695498,-84.161479522586,2002.79406478777,9.02768070372764,-624.937242585444,1824.54829913622,-9.20533326494706,321.822984653803,2649.95154197794,-243.01471364982,1168.69893856995,1010.28187865673,-319.732180603146,163.013633791657,-3163.14695908227,-356.047718959852,266.665174554061,-1786.31077531843,480.52067256626,339.310045163223,-2142.62638469599,500.209225702998
"1",-634.5150368059,9648.86339358439,13905.6524540016,-16803.5244270831,-2200.9793710514,-337.205257930404,-18929.884377714,-2559.9679924354,-647.844447815834,-18333.5746542027,-1844.01853835418,128.443006351647,-13734.0495849545,1041.37818694854,476.331823873459,-8951.0937769595,3512.98034621929,340.44211217277,-5804.38468179277,4739.24822571548,55.1034233853829,-2876.00054312015,6148.5101338635,-437.502498146417,1682.44063533655,8047.74962115002,-352.98773065096,4822.1453158983,10082.3682844397,-486.41273171277,7991.94101867193,12322.4254392493
"1",466.015866450416,-204.762198052085,900.037372437649,1038.14034621667,97.6009430611598,-176.58423672037,-425.50682282783,-695.96990849411,948.50372316252,12.2987069146597,-1487.02272667293,1257.86572393506,347.918041354469,112.594448679788,-995.072967024979,-830.898502681887,1461.33300872401,-284.216042008436,-290.683746884706,42.5661463992504,-183.437205482328,557.317000402812,-727.551442803522,-1254.66878072844,1626.66074976146,635.46904788144,-345.553384756131,-498.07832946075,-605.686995677185,967.751931768162,193.95159624972,-486.002060387486
"1",-85.8550812488814,-1102.66013287025,7419.43233407296,-2184.84036228634,-2313.97551176552,2677.04272669819,-1525.95104679732,792.251808223336,2909.17228731022,-1241.45793690694,2011.90961503602,4116.75651511739,-1313.25585536852,2526.8153262262,4181.71211647683,-1347.52652177588,3093.48488748477,4368.68534200069,-1142.56917720826,4050.35052920079,4542.98816546321,-1078.83498191009,4964.15797656904,3861.63121864536,-961.251367448055,5626.02933531772,3863.54145801877,-990.785072826519,6002.74955190652,2590.79979262855,6532.99333216548,2621.31486360271
"1",6521.56046603933,88.9688587816633,-1651.2077671375,3600.97839663549,3815.08505177783,-4294.57003525022,-920.761633788073,-130.522704391046,2368.70430390513,-5701.18259387405,4853.17936198203,486.428465279681,671.753117699108,1014.74637783958,-8145.0824580908,7106.78746337892,-2071.38785271087,44.9417140264274,-273.0069742006,2997.75540439845,91.0492690363603,-937.136614753986,981.994205810405,296.923680006475,42.7733637157892,-162.73045855582,4745.42471020439,-7060.12135068352,472.084505652469,-605.542984909313,255.010600482757,-9216.35322235007
"1",-293.231374643524,141.165856250581,3639.05031207467,363.093754067094,2200.32185627037,-7349.09976229623,-1167.9066603618,1043.77361250635,-14535.9379254459,749.423229674135,536.000566327212,-7151.58317241938,3647.38077206783,-239.303790503146,-905.635982199209,7404.44200287637,-959.488621158727,5328.61345680824,9764.42544295469,-1915.12189758993,4565.00956956221,1740.46562727346,-1217.57744544014,2239.2451945302,-7678.79058614633,-819.369718479608,908.367565438416,-13756.1435813662,284.044836486463,878.785434310486,-8851.65360250413,4188.49403114798
"1",3585.55427997572,7338.85202219604,-3958.33534017389,515.161158078727,3679.75996863577,5118.28688547248,-2098.32788422155,-5524.16215552693,4868.07077985803,1902.8571053002,-4577.70250396841,-2702.75173284871,1826.70298881361,10686.764501697,-1567.01531879369,-222.179867924581,2770.21602766075,-3079.73069606658,-4034.74428962698,14902.6671220466,-7138.0007219777,916.1753699218,-9452.79501422852,1595.23692119827,3322.8930003361,405.854447148109,-2795.60553255892,-1368.08003151441,8678.94475919281,439.704774346537,-10424.6146214486,-1650.37516960931
"1",992.197093174068,-6639.68289204854,4045.30006117521,-94.0309594722172,1260.89836634116,-7876.39709905274,4366.80807246869,-93.0342732582404,-289.28866466517,2815.51546177008,2361.32420902823,-2627.19112069793,91.2312243460587,191.916701178724,-451.375210318019,3170.35453614587,-4031.1591130305,248.528863783237,396.839691259135,-5085.55071604502,4501.35946813071,-2193.99925002872,5.93557200753516,2572.01366546448,-2121.48853980564,1183.95574029325,332.709596930954,-183.603316138955,1981.58529139729,1887.7804203047,-2937.86104298956,171.518298282381
"1",-2029.94376813285,-11157.4492733057,2424.07173651326,-10807.1362119025,4698.8373724354,-12718.7192779239,4422.21251896648,3979.19100308667,12483.1906668924,2754.39008619682,9016.72037059782,74.1677525278435,-3909.29528678669,-3192.57312639373,4572.25584890353,11424.9163538536,-3843.8656661838,11519.9318586501,-1529.50241619372,12136.7017338502,-1238.5008722003,-8247.53862854727,7205.77334232897,-685.762405108136,4498.27744288835,11697.6524911804,-921.461902613294,12014.4634920119,-11745.5026360757,6527.44672093598,2980.6178962137,-7107.85351293531
"1",12582.2213307494,-14060.8540290069,1766.57336832073,1687.27417332783,-4868.97787909737,195.189454992284,-5485.58387075919,-2664.59980983964,-10941.0641421989,5712.53257697133,-6669.55808698956,7895.67848916395,3769.80271100352,3677.54535929724,-3530.80782569223,5007.7583989232,2229.25831421991,140.921607130147,-6488.12396540592,895.336737743403,-2401.5504734475,-3211.762756076,-6405.57928141635,6802.10304884571,-9103.32206857642,8010.13586212689,-9945.61140227618,2095.22624708217,8588.43797713137,-2119.6442149104,13104.7008343932,-3241.17027297587
"1",1873.81404251267,-9068.15424080042,8795.21102296427,-719.020248688539,-6144.98702124962,10333.6658326924,-1657.71706487361,7213.68001297971,7073.10069072437,-5561.51596497997,3528.57026289684,-9397.51786395718,-2559.53499840304,2273.98648473696,-17089.7688307922,1826.67041986789,1752.87629061506,-6829.88549657443,10178.2660753237,-1711.79584130392,7293.42381378247,12294.042409173,-5914.58458863983,6094.57112042592,3266.67435623872,-5416.46485737735,4899.28927347037,-6427.32088108793,-2982.56408552554,1833.63191884233,-18318.9439511268,3182.38543888372
"1",773.782627987043,2735.92500140425,5242.43717274025,-1768.03854372398,-5959.3439729123,4201.96607449466,-322.859810812119,2345.27347417972,-891.588395346428,-2020.3787389114,538.898813095588,-593.803014449172,7435.55685798749,-2548.04478854868,556.944847515632,-9377.62388971147,2492.76442550378,818.768953675067,2612.11612613047,-106.969682936868,-1975.80135298575,-90.2580490615052,3744.56195870809,7485.89573885113,-3089.3568542729,396.481427897588,-6414.30116454697,4079.46320985629,-252.70031533042,1328.8854632456,-8958.85482756533,295.63899993691
"1",214.486293050645,-92.9078001545877,5221.7342980274,-3679.15553317395,2854.88504809928,-478.192778498759,529.443626201361,-3289.23059329959,2383.92925140626,-101.035787138119,655.469793152306,-3536.02284148318,129.094560760388,90.1633110577691,865.803448228313,-214.177008651938,-1104.35959872615,-73.1780075354686,1382.74670858649,3222.31636671474,-1847.48725572853,372.472295318718,-2063.70822657559,2548.9900604747,-422.797687925402,796.790902453526,-2985.47489444867,-201.791668018115,112.812094526388,952.229753034949,1340.86063369104,-1666.452335579
"1",-5438.23088348373,3836.65305966219,-415.051333874487,16.5308740672003,1356.22871249884,7317.34800623552,-2328.03247193596,1297.87476805655,-5401.27464214274,-2373.14792290058,546.602650768065,-1769.61421304061,8456.50046439362,-997.164962757157,1449.61981928909,-5059.39780731698,-3102.80503351803,668.868897795497,-2740.61158589605,6393.24675401523,-488.361770260238,1472.90188905681,1222.30509619933,-3934.13577914287,917.374530209244,-5385.6940584205,5465.46488947859,-94.2953464468569,1560.97917325285,1689.09983589758,-4212.58870730302,877.989257711845
"1",786.032117399081,-2707.00313758949,5711.84552537805,-2523.51266083476,898.379898512667,-7125.67889425639,4869.73723996835,203.2515552619,2908.69880942774,9882.24596995383,-3700.13954095353,1054.97873902205,-9492.50294882009,4087.38591153234,183.560763641075,2032.71165510404,-3657.22036384778,-4353.42488652144,523.931948755259,-1295.56653185035,9615.7104218182,-1262.23126219026,1900.34886172628,-5809.48375671656,-4141.59545730763,635.648957973197,-1744.49655382814,11371.9334467971,-1494.04458474174,1519.09303405307,-9403.55584319448,-2538.69394169183
"1",17745.2258730738,1860.17905907853,-21023.5081501421,-4520.48373831228,517.911493630054,21051.1978742825,-1351.72833601747,-20663.1003524839,4577.92784066535,7146.95585555475,-4261.65914601968,-8480.91079284181,3246.95047078962,20387.0284318609,-2502.80620623647,-18096.0749116139,7310.72032651314,5889.37705730411,-11363.1447726398,-7875.62157620693,6708.10581229137,17704.482189523,-4482.13031294,-13534.6503324147,12940.5997720818,3988.06807837918,-18354.9589511336,-5329.22920595379,8298.59203009661,11719.021399688,-6225.99366697378,-7287.23315345834
"1",335.765879385903,-2511.87665557477,1314.57003189634,489.779133688915,-877.086675423437,-400.122346302736,68.5323701876965,-2730.40488527059,1231.98291922455,46.0097024411257,-2143.37984107424,1948.02790104335,-66.6629434312283,-1364.29247696501,2329.33339222105,-677.263938766936,172.823792925369,2196.63000606619,-1382.02455271478,536.440680456945,-1233.7123550878,-69.8313167487354,566.911186906805,-2755.00464605999,2001.11234158412,-180.538099826626,-1055.16117943216,1922.39241336765,-1210.55125209604,861.63709886747,-33.4009664564593,-852.003669143372
"1",-3247.26442849244,4215.26237329827,-978.094256755437,-10254.883815425,6759.4778366859,-612.354484936951,-5099.48253498741,8250.20681361915,-1514.28045329392,-1297.285022739,9515.98501446624,-2272.60241786595,1985.16654500439,10008.4277441142,-2656.65050272538,3191.11721632734,11020.6092457409,-3639.36782361923,5591.61540236075,8751.70873561204,-3833.01291826387,5692.51709653598,6885.22593726404,-3599.01704500301,5233.64054888032,3433.62141834506,-3513.39346816713,4998.18713769621,1281.75834701117,-3259.69884439523,5158.86462182206,195.756508681546
"1",-895.832263500202,-14.016148074348,-361.096060189937,-638.40978212091,636.339787989523,383.362325846774,161.332910449747,211.17999111645,-39.1957151962799,-174.943783367797,-745.725339627425,39.99359154906,-140.88941382987,-378.804089370428,100.898218465495,622.889459185214,455.565709418123,146.228488742953,387.256067759102,-81.9849521067656,-180.623645902855,-923.648505401761,-36.731464144958,-157.184184049486,-557.021186332355,160.827089477363,683.81271344125,486.768715456594,88.9130778346945,378.925802981811,-130.986781391064,-194.686096735542
"1",-781.528932810166,999.385562119977,-5576.03702035082,2199.08944792754,581.847986048524,1845.71335437271,4466.21399350293,-3793.60487820282,471.673312575764,-6504.52094889652,2951.37188375709,500.627514119108,1605.85973522963,363.27305213655,-4244.59343779669,298.421213826944,-520.615211982958,6744.1114577347,-2399.08507648339,668.544427642747,-6361.14964578556,1664.05161469915,709.447477042442,-200.348449746941,6105.37921198551,-2048.84914759003,1044.3863939693,-3185.40931844832,-2114.9943216218,548.070051826942,-2782.80830046601,6710.99151640589
"1",5110.49014929645,-4663.63792086447,828.447230060743,-1588.76548201848,7901.06537148886,12727.630456657,-7099.20928626803,8680.11685501478,7418.43367192358,-6308.22625903916,-15482.7215375113,12039.3552708066,6192.58062211874,-11992.7417357885,-5706.58984239866,7393.89746065566,16929.4563778321,-5950.97242192847,-765.308334988614,3099.1105628444,-17167.0862318972,2130.54099540791,-15489.3098622583,12856.4332372167,8511.52166678913,12190.417440702,-1270.51440591873,-10084.5139745594,-6260.15676827471,793.053875673553,-501.340065529656,6035.21951708238
"1",-3005.22771675397,4435.04002021698,2518.20006763699,-3405.74358160891,4269.10706262922,1229.08794557115,-13262.4578453765,-2783.43530395398,4255.31067312733,2779.54011474877,-1126.08049160579,2455.86700189153,9151.86144351823,929.760795398838,-8238.85673516843,950.941884916441,2064.06615419214,-11205.2448925374,-3192.27735023441,4657.63881157009,4963.93425993095,-794.046900486431,1949.71591602166,8800.515000519,912.596855207643,-6438.49792875871,1892.38695639166,1280.58927544581,-12610.185820514,-2388.01615554249,2926.36327490036,-6521.82797273811
"1",-1138.88313152928,748.920694408625,5633.34192222549,-906.375953848713,-4197.79841628161,1043.99978490605,667.107017387571,-5357.71808268513,1075.073442054,-4284.46250458789,3433.80477574517,1074.50334164359,-4609.58679317995,-141.654437988274,1833.06809268181,-309.182483465673,-1483.54673637022,-666.959662328127,5210.09131492311,-1153.13678107645,-267.44985834456,5044.51219752806,-1680.0904444819,888.541846372037,-6250.95051766259,1340.04828077772,-298.98239152576,1180.12755804158,-3716.79579875009,495.580083583268,1329.00767081171,-1640.11150258235
"1",13409.8792612668,-3964.02456194614,-693.469114792782,3564.9609250095,3861.05623312227,-19546.7102596019,3960.76043725806,2418.36029995428,-9862.71844327379,11635.5170790123,-3137.6605919546,4626.5650608462,15139.0837038228,-9331.38859370431,7309.30119971067,-2837.88667620299,-4289.55963750373,4032.40440268557,-19048.4610956693,3011.04016923127,3237.24448750147,-19127.9222029972,6609.08128190189,1051.78975363674,7193.08838107765,10753.4144908967,-9276.56140326839,4667.42425361134,-16457.4725502097,2830.17933740175,2672.60021936346,-10566.8413159481
"1",13279.5489858681,-10493.5195984399,931.615982297175,-7144.65437930179,17021.7877517818,-8896.87908886527,7934.65170923682,-974.906834569102,-3931.88545259545,2845.28028532402,-18908.3140829221,15579.1977171205,-4490.80980272988,5245.39561546333,-21244.5778356826,6261.40877690412,2703.64936801935,4814.79011756404,18970.4753331831,-11911.0689960215,6997.04870465918,-6913.19514534254,-288.976039749041,2051.02019771213,2241.13885838134,18747.6857700544,-12603.3758682664,3278.68536575046,-28328.959418898,10152.5073477374,1688.13776565039,9728.61446345908
"1",1811.62231173395,4499.38558283185,-2140.06292229311,1676.47542985192,268.958048133738,-2153.4288524995,-180.486918067293,-9.07220609728616,4614.9824172402,582.803808077182,342.639116397394,-3507.55825924694,-2680.18373537243,171.046260317437,141.262302215462,4366.23259528567,439.289836436055,381.888103908764,-2773.89420779039,-2439.69513046158,86.8183076763529,472.114727494596,4953.04527599642,266.571640693856,204.304823622062,-4201.91919940918,417.457223079508,448.716657728407,897.43901073152,-2125.02147615182,-2769.67417785349,-126.366647667527
"1",-9186.78305671702,641.00508919195,-3344.7498925257,6696.30777944264,6762.49791460862,-156.576257854239,-6121.4742528999,-1152.82054856352,-4599.12389293779,5909.04195733393,3289.84763466479,4290.91543026266,-2051.64429617179,-9183.2651478939,456.967654353692,-31.2043256242254,6804.86922362296,1109.53341662007,-1684.75100163229,-1733.21611025477,-7912.97108305916,3922.29373640984,4114.86386963837,6810.75371848127,-1600.45622117104,-9096.2125174515,-189.740196108265,-3146.22434019493,6086.48430763365,2602.76240956067,3202.02131402076,-1931.40142086532
"1",-319.417456580169,-544.571370045934,-1208.62544244256,929.16788382146,-294.535690410444,-151.444146966176,2387.33863630491,1745.69444822727,-1400.82512751619,512.230249307233,-684.153665387459,-3621.32774841687,1598.10828826219,-401.478978225667,-344.653003100584,1690.43228231268,2368.9051726297,-1146.4325798097,560.193159505099,1402.13601937937,-2006.44128536584,-109.975163898563,-335.996439511583,-1232.50363809047,-2266.4087040038,2720.04757877027,-2159.7607875048,-5211.53891692273,1080.18887337691,-24.7793893643515,335.123415855263,2832.69696261082
"1",1410.96767221706,-320.596191862452,758.780495855906,758.278050079106,-1829.81710778438,3530.87177421375,701.7151943402,3570.66579821034,-463.614772814453,-1849.96889622581,-1680.48935363374,-3581.14263542675,894.890257230255,-1142.47479291163,4295.76550511544,393.233797383196,3247.37261285748,-575.202024807164,-933.0050920959,-1870.46419562881,-4858.12075247936,-351.404911003188,-2817.49269932567,3474.85680409652,215.167407535324,5762.19527835146,138.087152125186,1858.24083445008,-1140.1211728009,-2907.6541865624,-1372.13607648155,-3016.40800075018
"1",1711.66724718772,-1477.66995780227,-2087.8513086018,-3992.80766710918,4218.7983928634,303.576229362965,-89.3861506484828,3046.96450387228,5137.59013050319,-2458.4353228631,-194.20501291458,1321.16784804052,-3139.01679548168,-2055.84495400368,-5.48958511183537,484.502672059099,-6410.22696283706,-450.321348802125,461.168083570565,99.56120999014,-2928.85636420703,4806.65566485998,-14.3803631619076,-14.8088500432163,410.39442773223,6140.19646662581,-1011.57299697375,-65.9495346062418,2852.98694080408,5064.07271580167,-2570.29866763681,25.0101523397134
"1",-5518.86541216873,2642.54737356653,-9555.19771036418,4560.23361843111,902.695736325605,-1304.12698697791,12683.1223764068,-1790.8393962023,5927.65246218,13321.2710949311,-6439.3952071882,4751.74232950283,1511.23326394527,-6035.64844343458,2951.61394401507,-10853.0089139547,-3451.04582352511,1684.02260772732,-16521.8488856155,882.19957979607,1934.31368561707,-12498.2489134201,10321.9486319441,362.333178062434,-2396.69116559897,13610.2752722824,-2367.85021286263,5775.40967340878,13335.6979561573,-5540.21222855866,4253.90254929077,2632.75536138178
"1",-2981.6310391161,5728.21330147951,10999.609279586,-3050.22052111168,7608.60811420481,7346.96863598629,-3552.69137249366,-6151.59345102067,7322.04414268007,1458.52364154565,-9639.68905819491,-3329.36666619363,6226.01412015776,10821.3509971617,-1724.83338403679,-13959.2156240656,1637.08204920588,5541.443728679,510.902156051631,-3069.98630467107,1029.23254115291,10664.8031155502,-619.572727423022,-16459.2679256744,-2856.16122796199,8214.26008235667,9321.64876214948,-2657.85655308701,-7900.90600782815,4545.42326108305,2735.61408978671,-6682.42054148396
"1",-4865.01100099419,1918.97834186838,-13766.0973654021,6941.97876910297,195.746392362494,1195.49491669349,18357.1308429239,-9282.04435109059,3535.76382845316,-22298.3673714483,5712.84291901396,772.491004328571,6479.89534007003,15827.5900977218,-9886.68281534771,2753.35012624498,-23967.9494858213,11709.1418489071,-1052.87061101734,7659.46795663716,-2272.66205711352,-4399.65688578407,1853.41058033056,-9487.37777843118,15600.1739846259,-6015.8547252282,2392.79198675795,-25540.4361522216,13998.0937732836,-1924.45144949708,8150.91726676742,-1546.13905460124
"1",1566.28643722188,1545.13542131209,1983.58825022758,-3758.44412357615,-1980.11917982036,6071.17194827077,223.850180282301,-5086.3092101577,-234.169135759527,1579.19311013789,2039.97976371422,-3306.13640501439,-1982.92045819481,5950.01643390003,215.344299520076,-5437.5962252152,500.994429056821,1742.63756507834,866.666481968146,-3277.87753592913,-1314.16218226462,6251.05663745987,-228.102281034038,-5665.23371885051,1948.09494797573,1589.49529301321,-45.0281189680258,-3567.82475298801,-501.386756735535,5994.03171309373,-299.938643331334,-5581.59976265891
"1",-16539.7410266841,13915.0284863755,-676.39410865503,16681.0266746719,19126.4630499067,2596.91513798756,-5327.92958099922,-3514.75182199316,-24892.2851371065,-965.320902056497,-21873.6895243869,8872.31210718733,-2880.59886504797,20894.4384600658,8194.04527671088,13823.3182551235,249.151651415319,-10585.6366314351,-2713.09075872896,-25228.1031636664,-616.067931126842,-20015.6454128191,10950.8219173238,-44.2312246667634,22242.7654847174,7234.27596747823,11334.3838114298,982.789723464511,-8725.38541471901,-3136.33940033722,-26168.7449416405,-470.439031694649
"1",2191.83923813124,-3719.12222836341,-1147.79541558354,7117.28904489616,-9165.68905130515,3620.25375496687,2083.71743636134,-9640.51166552489,-2141.83265377952,3191.76023154164,-2975.82116901793,-3555.49886144344,4133.77640081349,7168.04451941088,-2894.05825139069,-3026.44703725741,8444.41663932851,681.560984563117,-12495.4201187036,398.307498658749,3600.84899841269,-387.663759100099,-3424.11329497921,2341.57312934152,9139.34032551943,-979.386119473531,-6627.75805181572,5802.77305828617,1992.63069401717,-11269.1561890959,-1640.50117801434,3973.18826692941
"1",-5434.81988386405,3103.44166649899,323.883107600649,1323.81497679468,749.082271690151,-5353.00668119911,2922.17660466552,755.118188186588,-6119.15443598142,2658.1897381563,793.10106684281,-6489.92141438341,2342.85167389817,817.497347933481,-6659.17170713617,1909.81033599072,813.825550943753,-7020.63995405275,1645.11052026449,842.414955888079,-7008.8750742647,1745.64995286388,1015.62827947492,-7625.2926040569,1269.73360286296,1019.55284104543,-7232.3790802589,1868.09773106417,928.371931177343,-6425.2067325252,2355.42410597319,699.203914047168
"1",-6438.28780509565,-729.323590317755,-3741.58391186274,2615.67552416353,-2580.01404969329,275.932693681933,413.667390714649,-6292.60490121909,-1758.88456515382,1554.52600254376,-242.65919774977,-788.131061983131,3807.2733698376,5238.62375298934,225.305058084157,1385.94595949638,3100.62397549035,1023.82678018133,-3196.56625037274,41.2599973623247,512.801916999667,-5991.08171767832,-1628.21144072103,1776.2283962923,410.940013702116,-772.049899696716,3867.03021364405,5427.14721340468,648.455063252603,-146.839126092654,1576.36626633345,576.317345285712
"1",1990.93597975774,-3127.42960043624,-319.640510135061,466.249794300858,1696.48271321035,6093.64423053915,-1282.81674408055,-734.136568370859,-5230.67317049898,-1449.20097266074,568.74404342561,1590.27024214274,6429.44939922379,-787.608606179321,-792.432474904413,-3775.18684061601,-3093.6625243825,262.382647995499,-136.678333296693,4714.92928822168,731.48488899857,1161.42371765447,3244.02671931248,-2792.94133694489,-491.583308442554,-4759.13214458182,-2244.92737586296,572.233207005537,327.943739250246,6292.71844833605,393.117265261874,644.574721176585
"1",-3407.83688437118,975.917305029568,-5428.6133059591,4783.62000295903,-556.329152870843,3449.90912728871,-967.213240301239,-1436.42369560631,83.1842206479361,-895.147288454882,5351.31359671357,-2034.27197965787,1354.81460024034,-7095.27299761637,1703.04088683544,-261.500123395405,3892.64181666816,4143.55127039611,-4686.23482671926,619.196681002133,-7285.84145888226,2643.52716584602,-436.49323344764,2722.30848966178,3022.10353352293,-3982.83227563186,708.203135603556,-7415.72553902908,4130.30880359726,-864.321459962937,3767.19210848161,-1508.33872324369
"1",-3604.66779052637,2835.41025211058,-1835.8259469287,568.062552451833,-1343.41936928973,-890.8714866691,3153.48332793163,-503.983320905924,5018.71309927385,-207.495528550776,-1266.75080450419,-2214.66448123631,-6396.14467812466,1609.20174056656,-387.187700721335,3696.01431242079,3191.90216782398,-1023.7866812078,3416.6111392189,-1757.19378153934,-1047.18604855583,-2127.29647519985,-5514.31080158203,2343.61329129634,24.030794942646,5905.64093348988,2321.85579145278,-1313.33002055106,1458.05865724723,-3983.79295471182,-446.839771415116,-1651.94560768709
"1",9186.88275578713,832.512664127588,-20132.3357788883,1805.04056379824,-5374.21780186694,-2286.22204167886,-26560.0256824194,2594.74151826869,-35295.0947104181,12428.6761699432,1450.77458500059,-700.869932911538,17242.8193226801,6607.24069600716,-29965.717494712,-9446.48568581765,-18948.6726181047,-9865.39491763812,-27443.3304595343,-15676.8572006619,-17726.4799244034,-67.3028631283915,2585.09694844827,14614.4170832084,10793.5483815236,-6046.85373107498,-6147.66811188577,1253.09299225501,-5242.89347976985,-11788.0173326245,-16100.0842818616,-9780.1046703567
"1",607.39635458225,110.160514026654,177.766295079106,2213.20589540068,-1757.73053833854,11.9120910002337,601.733374017159,2548.82595459479,-1847.03573730396,299.242160542062,566.313436015346,2511.7448387815,-1788.84748801188,420.513898070969,542.907424406307,3021.75830891794,-665.47995069948,401.371777512664,-94.6122799621815,3158.38201164392,-249.193159515701,486.143131477906,-630.752640834864,3446.24838365876,-327.551430436073,581.50426080949,-207.347384263243,3365.19903758017,194.481319739996,282.72375728948,-1050.56052054899,2670.62118771524
"1",-2032.67177830715,-580.926659401756,668.365272835281,4.31181704418131,1286.14681293175,-547.483489197125,-111.344157988129,2528.4982752466,-1387.79875189316,-736.339879005031,2071.89168791062,-865.350855092172,-1627.43604792129,770.364444039213,596.312533838515,-1439.18517740748,921.642590828766,493.871481687219,1814.71563417118,-1159.720477135,-116.46495204023,3045.83166112503,-1167.48684131554,-1291.46688124779,2215.44910475892,-678.720894616566,-2437.01019234499,677.639719062671,730.621556721347,-2387.2704072027,431.30601415275,449.879606472351
"1",-5614.0575003591,2274.17036089768,-954.586496561468,261.969861494704,-3768.9358652464,1804.58901855143,1095.45868002143,-2584.65556815172,-1658.22700981171,1160.51374783312,5926.30230790903,-1837.08353385231,4618.80075635085,1045.84275481263,-2570.84200551547,-1344.61242597884,-452.735294352289,5053.31781091291,259.595167769404,-5793.84382139229,-930.347083083115,269.246691472486,-4791.25334656935,2511.84462048305,938.046505093429,5923.29561332012,-57.6381902101192,-6879.84374425895,36.1712673072778,438.014335178143,-6062.0979605438,461.907277263625
"1",-548.736674896577,909.523073815282,5332.46208174245,1995.54948510897,5199.29292064865,-945.885113314968,-6496.54748143834,1693.82211948912,1573.36005662872,4929.37628164515,-943.480894704941,-3933.29253128314,2581.7385432623,715.94316281996,-5916.39154299565,-1146.95612980926,2642.65407782726,2893.10788329869,55.2314338825757,-1965.42106006423,-1502.42418084398,2707.17759235804,4886.98558966563,-427.8732994873,-6364.18514329616,-999.611834416749,2576.72168127322,4110.1486452106,524.612667628498,-2785.63703518363,-851.030274060583,-7108.46455239199
"1",2806.99897020223,7729.10087534405,-2250.75104326416,2421.94353011255,-1493.62985377865,-1600.93634020555,19.0568315488159,3002.37875654168,6909.8382242818,-2362.56749111951,656.319803423636,-8297.62336256984,3182.28006201048,-273.210245088025,3092.51970188558,170.179090138331,-1874.38838250965,28.8662400770325,1795.92489343496,7785.68451199199,-2634.48554293962,838.189483144413,-8197.95886520299,2173.46240374745,-32.5076741373801,3245.93457169587,3908.03218677035,-2644.27859639976,816.270932803418,-9189.41944248731,1878.75622254618,208.604215037831
"1",1990.75228766705,-546.09147123947,-939.500129415584,-518.313445446036,-2328.9242351057,2421.99781638027,-644.9675673747,-1049.52571974526,-928.499356372087,2254.35062859396,-529.425327992032,-601.543456172729,2204.85568837992,-411.19108871164,-203.728892166966,-152.937233278442,3507.67750553243,-1708.45618958319,-447.5497688888,162.338035195489,1404.10248705425,-3465.41983596258,1148.88342960924,-422.584020213169,701.611908733854,-3142.92654732307,1012.46438898126,2699.48975843919,-1103.49611540693,-709.098653049386,-1236.54798788776,-124.981362446016
"1",-233.062123203653,3000.01625567325,3849.1140952335,-3462.45585348018,5666.02513349278,-602.22276489995,3254.13608156063,-293.261456587648,-2486.54813247731,-268.317193640778,-5440.13605023605,1334.17979802763,-648.303655481389,-1435.55079420246,5989.853700475,-582.713481567112,3219.42040999114,241.062772502118,-2742.54493500223,-461.861724855698,-5677.68019747973,1441.74260937868,-427.081321490175,1006.50215166539,5557.45585033773,-1066.58180719885,2723.65031261177,-2291.99751227606,-2480.71139910138,-603.080693801619,-4082.34641467129,4036.14473332391
"1",4619.09085158897,2699.17757539228,-5989.95167819204,4161.37353816824,-218.291848898374,-5139.49205128855,7879.78008032245,5521.62091854909,8232.95061289033,-2852.66633797608,3204.41169799552,-6061.60476602638,-1003.49687040925,-16781.36107462,3189.99383448089,-18249.0259327922,2669.10255521244,-13871.7169116168,1142.72217103767,-9391.63308547091,-2492.8784796448,-26.9533950390758,6932.72969531305,8920.1791085615,1807.81166484662,12697.8719108136,-1850.00418644524,-210.982988107537,104.139495898742,-12375.6313937778,6419.75475831564,-10324.3732863298
"1",-5835.99333433428,3467.11065778426,262.252581180657,-423.104985287119,740.418426969226,-5150.30991717101,3824.26211979718,773.128667548298,-417.179552389884,2036.80819035482,-212.939678553681,-2782.11878096768,-232.838551263956,529.579136745319,-1968.89419584355,5534.16101189053,-148.458166452603,-343.919356339024,1295.6758440158,-2184.42963515438,-2313.46026401244,-93.7788300810482,683.222832519747,-3228.61200743033,5137.82525832793,-29.0059366720301,-110.534345372109,1588.31521972618,-155.260674890848,-2683.67524874249,-203.852207870909,519.622260623742
"1",2774.72820841956,-5543.37881318004,1618.9056044551,-232.291756969694,-1750.82883116316,3564.71360705324,2447.66872931819,-2480.01554963256,4041.16584506252,4398.5248505002,-2888.45000270603,4373.05216668576,4566.99704654385,-3160.13851862379,3701.26340137844,-836.958924883782,-2302.61820084922,2654.98899815618,-4375.15596658448,-1301.21827424744,2774.98070124352,-2400.94719425835,-1541.90137880072,3108.02010016113,-235.806744318975,-2057.55126616899,3602.49399906581,265.80020743218,-2439.48045516758,3131.63851752381,-3530.98318415617,-1944.11560610841
"1",6280.30415554271,-5080.6494846418,1507.10932206129,-5815.02819733528,10075.8027573027,-425.665907733089,591.335603115224,-10673.3594946649,7555.31910481511,259.507445715622,532.967438859825,-15019.5869951846,3070.82899510713,683.662760912482,4342.50710670821,6862.36439173592,-5071.45689084875,1872.63217698092,-11134.2884862975,-3648.41400143871,1240.48691597968,-10571.1376055771,7286.49405670111,335.017375308767,4745.86482316813,7597.32558752604,-6157.10456295033,693.120705789516,-2855.71372936831,12810.4481047754,-1169.01019393385,4189.0855546248
"1",177.906953868819,-2.20573054373533,768.426332308252,3724.60128934545,2984.89897777658,1876.43652104474,-48.4332205006744,288.944129154185,-386.526278028235,856.069756915469,-10181.676761971,2560.08298709159,-2425.04574487538,407.032231165979,-186.101903694342,-6.87473870731491,4210.41007838494,3586.85382834826,1258.0861101013,-313.086440487514,218.305266632404,-494.085544335833,2481.28195331946,-5096.79865126737,4317.9291694177,-715.05382681089,95.3675485042538,-116.16930911706,358.475739732408,-7745.55731616347,1083.0262449451,-3016.39546521449
"1",-6070.53311500715,-1240.40606392408,-2861.52183413187,3107.93366731176,336.32318901019,5188.1186500615,11620.6524399788,-3366.95847492723,4253.3591059791,-4112.37296983823,-2390.52312547074,1100.5218266231,-14124.3616983995,2061.23732595544,708.653465503843,322.071784412868,10293.1919786563,-2375.95915371442,5405.97587549652,1742.23013878672,-3018.22267153347,1321.10141241924,-15925.8886994244,35.5680078201714,1143.64334840541,-7027.39905736404,6098.99038411005,-662.184601861564,5969.28464038888,10864.7440757163,-3526.47602586156,3932.08189782649
"1",-1143.51614282228,-945.876972682372,616.797548969689,-1264.8521114666,335.351082477943,2201.52746667191,-77.8824585107958,227.772575888778,1778.05954903268,-235.782366876284,-927.423184365819,-43.6898210156559,-387.10815059354,-1032.18205182962,-952.024491874878,-70.9238425590706,843.677487698548,-449.23748262389,376.915899827318,2432.01072917456,-109.362697981564,-649.691267787709,266.122924786222,-221.322693079954,-1141.18982621866,-1081.51747358104,135.90069634563,1291.6035368464,-354.021709343296,232.084025381041,1814.20777871971,-331.113571322476
"1",-5204.00975463718,861.154958051827,149.507167620997,6331.95613633037,-17442.2562168944,8062.96617424407,134.217189774392,1728.0245326795,-19513.9189456075,7594.2455072274,839.450296289581,4408.0587126314,-8819.86642157192,770.104552636289,1402.64419081095,6507.49728914099,4890.02335338826,-6521.83566379119,889.677929244014,4037.69687869334,13216.9712379845,-8947.76997402061,1284.3123865779,-10491.8591174025,11679.4490399416,-3957.23824488555,2113.28440561395,-16007.7514525733,4277.89273458449,1361.37828825408,5544.48644161949,2496.17707942132
"1",-771.306953617681,-3200.67251349015,924.503606229868,221.999414467822,2001.23420557751,-1832.50157291406,2236.65704009505,-2130.9648747718,3442.02655504753,-616.395727470329,-2674.9854415839,2291.14610309186,-622.533077010611,1787.24743916544,4041.65197817842,-843.150947145811,-841.394899650241,2931.50951549894,-447.965808817398,365.639879306715,-1358.09790866869,2429.06927803602,-303.414536823983,-31.9801548514678,-4958.28460725767,218.859002641788,2171.1037748138,4046.86262416734,-1456.222101069,404.446960055446,-1192.10805829179,2794.82185306495
"1",-7005.76462527881,-3302.55302076795,1916.02712260829,-3446.63759764707,2313.78068541094,2883.91101201767,-992.218413362797,1623.97066744606,7084.35820744468,695.12757211133,-5053.84580466851,116.311262108416,851.972911554376,-6714.99927960578,-3565.12193137841,1983.56733928561,2847.29336994718,-951.104288514196,2584.64218943116,6707.48628348719,738.6904148913,-5431.22803698676,-684.514412833156,1315.31253036284,-5180.9610082917,-3197.68702573493,2205.32177478261,5146.68589309001,381.214467351036,-1488.83777951589,3786.11379496357,480.941449278574
"1",987.754404551627,-11367.1607829718,8165.54677589135,-7125.17932332446,7716.2392485537,-3886.70374172091,-2791.89733626434,-1126.24911176523,517.799292048943,-470.73845887719,2063.42723880738,-15627.8431466707,6872.16299077909,1423.09505269019,-3125.86210777323,150.780715546585,-160.638990774931,1307.35780263435,-12341.2131499051,7702.22414588589,-438.560458536369,-2679.8520573394,908.132367094421,298.766755729728,-490.195518388343,2858.04601026765,-14351.1934972396,6866.19728120743,2208.79144689415,3665.58218316041,-4393.1294310573,-43.4610985147071
"1",-2004.01704942215,1348.88707533181,-5105.91030139612,-4797.01424721289,59.0813527062782,2861.95833960472,-3941.53620335708,-6902.60293094039,423.04441332448,1855.72173891415,-13187.7310090252,969.394497411488,1016.25908149181,898.326464765998,-12497.651422527,8636.52329901233,773.6043352457,783.045058359919,-9473.92314319097,12795.9233951972,62.5498357310413,251.200770794575,98.3459897039784,14720.5943033627,-5816.78377590594,422.072682145836,3277.89210028384,4990.93882132821,-9401.87025251235,317.561275414665,2356.58664628157,-10545.0915003571
"1",2922.46998696667,-2692.26802275999,-4684.82867995959,650.284358363537,169.638115086988,-4123.21809314897,6030.30181573915,-1837.9585488433,1105.12828622886,-12183.4448017765,3858.17849369998,-167.003661073372,1086.1905009423,-12372.8877458192,3332.2035885903,-139.323556646708,734.500393400236,-9534.11644204215,2975.8902446486,-374.29242171541,1210.80931226328,-10129.7980692776,1528.28084637623,23.0507811242519,2756.31251093635,-6938.53469663253,-30.0305979384167,64.098757378358,3308.71114176073,-3600.48733713794,-1007.53217232042,-6.62014815173838
"1",-1457.22423642637,2161.89630056187,4769.37432742411,-5809.25133289717,1483.03128422888,-9420.02898582832,9042.65243810907,-1759.76177300226,3449.47833409136,914.656502658698,-2728.48880853984,1847.66739450734,-5302.639478082,6342.80924186487,-5203.69727676028,2527.85157766302,-6051.47440121013,6262.42531045221,798.30780793889,-634.149114704631,5105.13323675113,-7293.29008380215,2349.84091625786,-6529.44979194174,6583.54886904314,524.8653558406,812.190053939816,3810.65341025473,-7466.33494640997,1799.15388167015,-8749.79849525013,8529.9507073592
"1",987.655405573578,1850.33850128498,-6619.21095673068,3209.83581266373,7299.17014361653,-2059.08694089937,-1868.22893260299,5027.11864982703,1820.45438638478,-1690.14203374743,6469.2711814482,-586.043608126999,4328.81416332871,-3613.48068511958,-2131.96211455327,4491.60075510755,3238.101703165,-3967.88085328616,-4940.5428589594,4501.6452786993,-1605.23665472044,7087.37330793969,1168.85789056683,-3252.57608280704,5504.77116577509,2585.05856126022,-3514.83845893856,-3434.30675672968,4431.14775230801,-591.411496389239,2049.76510206917,-6842.88253852981
"1",-2832.05080370976,255.744784734459,6584.86879444031,-3783.51266808669,-299.202759563937,-2146.24489232955,1956.84484369351,4295.30524428089,-1885.44941292532,-7909.9972300079,2356.0536442511,2181.7234368236,-7903.04843567969,-1874.12313719869,-2651.62432188649,2361.09851654036,2737.68254166823,3237.44139628626,6831.90487340394,-2135.72886089793,-1822.90027270137,5907.76722042367,2842.08204781355,-3368.60462561209,2129.92704993961,4435.23899997866,-981.895329930127,3006.63600610796,-7606.06974172728,-1270.05854006015,-6864.43618885148,3594.08490766463
"1",-2078.89602188681,119.464626577573,175.499698275549,3259.27667557661,-2145.37316871162,251.33534613883,-1420.325148039,3297.54721875277,-1619.1670282301,299.532195744644,-716.131664313269,3123.81650895624,-2214.36982824148,281.950831570402,-575.593990418517,2800.16500903568,-1925.75269936052,306.327471474879,-1689.55157996162,3158.11147913077,-1592.1479138799,207.146242070374,32.0997926962845,2962.67312797701,-2365.06729657294,154.648171433829,700.821166117258,2871.09132808933,-2476.13387827219,274.452655205358,-268.15071622357,2827.29118868167
"1",2727.20894339199,-2236.56405128618,-4450.02180206421,-1256.36067548307,-1105.84875786197,5604.02096525384,104.742564027895,-2141.32866354812,-2637.89950210698,-1165.5252042485,5444.01303540056,107.191368710366,-1174.70213132815,-2043.42857797906,-1740.6420221991,3586.27195807684,352.711407439679,753.915769450672,-2208.90263211483,-3128.09284691871,2609.04937108707,871.242435190963,3670.59547104185,-2028.18053304357,-4268.25690784136,1060.5656550241,973.118663289546,3442.76322466515,-1689.14718195927,-3530.31251306519,2035.52189044908,640.030661501593
"1",-806.50109171879,-747.231550089439,-2626.94669081637,-2013.17271535904,1169.20934114996,-693.860721642668,-583.335820094964,3080.72873404942,801.284298600476,-443.912141531457,3771.497604217,1418.74782784149,-371.349849886414,3711.78781372298,1667.27721289421,-305.054999908073,3256.92894258281,1707.2194329157,-317.699625410918,2952.73689667318,2135.72502627325,-304.170902783045,2734.70134332473,2523.53231989181,-144.55260224047,3128.45552221257,2330.19755211198,-295.211805294901,2764.25432804715,1133.19487767564,-667.989938467556,1070.33355462717
"1",1574.90623177667,4700.81314556131,-3257.04799456331,-618.899662900078,479.791724262853,-5826.31641427976,1295.14449846744,573.648483188832,224.698840455798,4526.82532392375,-2089.2619574135,1212.94496359504,-3398.71997859233,-16.9991850451201,677.624395953397,-2189.85477424457,3531.95827380092,-971.053834265015,1212.74954350565,376.165058677425,-1303.7840893413,517.629800136764,-5074.77725102775,1614.76992265106,282.500829144495,1946.67515576096,4257.0275588612,-2409.79802093642,707.67758311133,-6240.57498290757,1314.70192255804,408.04747825089
"1",1103.5920670924,1118.33358131885,-1430.82745762568,699.399348033347,-3562.95786850449,-693.466547488205,33.3601197110954,319.583155537306,-3481.34486889077,1028.72213340173,141.021699197567,1006.07254187076,171.434186670365,-1310.24369665689,1215.11909581952,3560.33080402546,-973.739814168196,5.52485185390289,1002.47964569792,1902.50964833037,-1205.2452323737,270.350285327709,-2457.55671873095,2058.87653235732,-108.280011175037,1010.50591486657,-711.733670794536,-1257.76202416882,1245.58569098766,3474.84056117713,-853.223587679778,10.2586440788126
"1",-1160.76774085459,3303.6233709558,2453.13733777725,1377.37992233483,65.5602711668819,3266.34159338761,2352.64533458309,-2416.89128857396,427.260912343763,-5809.92173985557,3076.18433634756,-283.06061869852,3365.3721631898,2878.54586489887,-2535.24849398751,509.799249861202,-6605.55203369274,3542.96967967717,-377.668817916359,2726.59737057278,-663.05988049428,-1404.45188512013,374.562458265721,-6423.77443737824,3397.94766602512,-334.851016999357,2590.58298329891,-1070.01425207103,-1434.31984245186,293.423268917795,-2839.67344449794,4771.5794845103
"1",-2061.14509953907,1775.16527507218,606.213177886312,159.521358396443,-1066.44143344435,-1056.56388198444,318.103278069007,-2863.85395381779,-318.148118530919,644.771064810473,-2243.02341217545,1514.84128447253,483.649492386551,24.1022171802014,3314.73830566657,-537.255640110472,914.896604864608,1614.99196604521,-1409.3939679736,146.950945844932,412.270945943359,-1097.47038090316,459.785737857195,-724.613950801124,-1190.1096511415,711.448148090849,-2542.65249879843,-633.579174020521,735.857156293148,-3172.62889718066,934.053263637485,587.025461550765
"1",-1284.07677133862,611.670277097802,1978.44681044535,40.8343351525768,154.284175612135,-877.739607264362,553.973427009772,1254.13857279434,1171.80782147099,513.584977037077,-1217.6661139596,-373.023600679144,107.725597991976,-1784.38674670537,-14.5354440861983,1568.91789813154,929.75121702606,781.568739816087,395.276779953603,5.76782931590362,234.489274279984,-2879.62818241402,-776.316577072122,487.088295218931,-798.48093426328,648.050551302029,739.592089345483,613.411656992663,-22.2952426966695,-2220.83620685588,-797.755152162656,-99.1959746658915
"1",-303.969502786077,-182.764828615138,85.7563068134102,901.880982892352,-8034.36987366398,535.220794703363,-311.627163105031,162.555138316061,21.4955079232828,-399.480654106538,-431.385411453144,3450.72947033662,-289.394210295265,159.119562965068,-81.0056504448931,-292.231281760487,3454.29134706132,-75.654917986395,941.45953189503,895.598599143206,-66.1955549324785,-290.48108979067,272.891532557006,-4554.96527545583,2435.82632426492,-1466.53951444996,192.951258487826,-452.02786604154,39.6313502056797,3367.01679437952,4749.30500307085,160.150903833632
"1",646.256793385847,-148.523244339056,-74.2336588031102,-1924.07065513548,731.572694449346,-2201.40539883038,-622.091398651183,102.02568716675,-1520.28620280518,896.285358390795,227.183363067845,-757.807704232257,808.611895560433,945.882647402926,-502.579554814844,1851.19136124509,58.4275102123384,552.314648750594,2612.61156441896,594.526399645129,717.393373190476,2620.4971306892,53.2452932996685,1317.70528526465,2399.86936161538,-694.009634678859,680.425727273395,2005.38915168661,-314.739643606849,435.845018641201,1658.36369910524,-322.946119645903
"1",-5533.10483963481,7306.28840815399,-38.7062738721749,2260.48275537721,-17884.3967871599,2251.29562648825,2091.19118955924,-18180.0959930877,4334.51231714806,1749.79498783611,-17558.2560896014,5394.36450779206,1706.75794282022,-17922.6614650693,6097.48146246468,1961.9369034961,-18756.4183587889,3559.91304982021,2659.26894209593,-16140.2284295841,1220.83798307322,3633.94204581334,-12201.1632528107,-727.68283713374,4189.07366317221,-8137.52394439147,-2250.41069416171,4835.70567839082,-3168.1181584603,-3762.74728648041,5781.95122629123,1151.24427443187
"1",6814.92265123142,-460.375900691184,-1529.29671655932,5097.86110605413,-2603.69585518836,366.122102973138,-1403.29609274183,2504.99401531789,585.20580189117,-996.733179861495,-173.351485947691,-4755.98626645864,629.367977731897,-868.406762705241,6917.36884536069,355.088444565378,-17.8874591130426,-2387.45503557179,-1519.63328363827,734.557632534798,-889.37812235511,5124.59477855877,-1566.07746501833,-142.833153493115,-1570.05546330851,-886.175525032141,650.534943267344,-951.48783530926,3953.70065298458,-2253.00763818199,359.889514086499,-988.611015244798
"1",-927.791945141933,543.958910391626,-2249.35332929187,-1258.68577880011,-386.364622120211,-2899.87820265127,-761.281287232757,1445.14753221345,-1972.1614786271,866.521117681246,5817.18777312044,-394.604209893194,-410.127397605752,6538.20806817264,-39.2754770740196,-276.718181327562,6749.71241844679,-211.020445553348,-333.911979153483,6543.16628684218,-370.910336483017,-144.03716700283,5733.4322008818,175.027123708455,-1264.97961989752,1802.70016874159,-396.686331382296,-2518.57465148331,-3413.02814066333,-717.519219530662,75.1995310985803,-3311.55610570564
"1",-881.448485828915,5281.21441950756,-3368.69609885214,849.515067306217,194.442801306126,136.476696996685,-2538.38603030857,-317.374619081245,338.652974448495,-526.16125539026,1015.99358911362,-2943.98684139571,309.964137851597,-822.370619918092,3911.58503876868,407.812573516489,54.6553891436009,-2449.38717864707,-1138.45564793978,201.565319185572,115.019850885026,-2429.55600405758,-1372.58656593267,273.577594956401,-530.812202095069,-1535.70609470958,-3305.68960183818,176.929317362964,-190.813661997238,4165.13563206713,-625.410652191066,347.23018551357
"1",2765.07888452339,-7779.11119562554,-10445.3420986065,7034.07620119575,-9981.06992353724,20769.7935509909,16474.8723097916,-4954.45186703413,-587.658428627511,-63.4025288629689,-3381.36337832665,8588.22256527532,6023.07007000423,4598.26400835356,-691.606620332294,-8440.14987689723,-1960.71962200635,-14843.1913608617,2706.7723267143,4474.70405872133,-11044.8573059655,698.311560033428,2092.99404541528,-26226.7944653692,-398.382021958136,319.712331017847,-5288.8745900938,7054.30027311918,3863.2167344277,13296.5939984923,-734.300287372567,-1135.03262949477
"1",-17361.7632170545,-459.077047238904,-11524.6845164275,3642.69110422567,-12164.1478969042,6314.81960416547,3857.40821292065,-12226.508468137,289.139090178326,-17922.5143901375,-1509.9390595967,-3565.19154071139,9197.97639013437,1819.57579607774,13572.1376975858,2788.30168271865,3792.86445564882,-3862.78589282055,-17321.5690929711,726.401634100156,6342.88371618819,13238.5374677465,2251.9244183551,154.114493019906,-881.02469972122,-10071.9734450254,-1685.1947914039,-14561.0414472283,3170.51492959721,-5561.389888837,9501.41294630925,1325.74168108113
"1",-379.70358563065,287.546151330749,-1851.91503799067,1480.26620375802,-4022.41684243632,4077.39534127705,20.2801176889598,438.410072762421,4980.90508633841,-2585.83493887738,1543.89836129547,-1974.17720400089,-1980.26033317759,610.29761472682,-3485.05782434391,3922.60355325774,74.1938331734477,353.898397921982,5065.70349571189,-2491.34497218784,1549.88633453003,-1670.39871339213,-2352.10009829236,542.886491292648,-3453.29287236442,4533.3231438573,-240.277043598558,1287.93502170558,3171.45608208284,-2994.74891231206,1240.32306317434,-3980.42064253695
"1",-9776.38396130705,3311.91609011743,-538.716326585028,10540.9231690771,-1397.03162341931,240.806594468884,-3544.61241627221,173.622321089487,1904.43335154772,-138.971204708588,1070.03973975207,-7144.80524208434,1799.36009145732,-492.918378921026,10509.6031045136,-2066.83712187216,430.877666706698,-2893.43191033212,3564.0152543872,1032.65637916736,49.2783101030354,-2542.70118618306,-8160.09573292276,2336.77507660074,-420.930667788493,7891.88623085252,-4086.94385427043,921.110809394467,-1834.02189480599,7788.00888571131,359.779102583232,-4250.01297399301
"1",2431.45731114569,208.595551111491,-3353.05203442483,2366.88236492625,-4198.19981518242,-866.924586801041,1010.84596501528,-1419.91798639723,-742.929240268724,2166.37345039168,3015.57254432101,-240.592296385215,-300.206192420475,1989.83843882868,-107.144096981107,-2282.61353274076,-79.636567132711,494.954593178314,-4400.16288704797,-1250.17914476741,1371.34297875964,1249.47509956664,-483.315901853304,75.9789349435948,2680.57427006242,9.7952458531641,-2459.44321034124,521.798466195525,536.807074245546,-3526.63136047473,-1238.47562580541,2074.09945356239
"1",-207.265755474767,295.125102342145,1082.61597707828,-80.2648235700146,-705.228292528876,-213.993204903168,578.502488553454,1675.04562565688,130.640766168884,-8.50750869515615,-822.778806854271,377.226420719773,241.180063707263,176.265673040934,-1733.80850051675,-276.622929407372,88.1007283356795,206.233771094214,-2186.98025599965,-646.609529590033,51.5051062398142,406.464163645191,-683.205670019102,-853.036085742381,-62.7122243601512,565.77493253703,1059.48862653732,70.2764613131969,-147.629359774904,726.37337289949,1795.59120051624,34.4601823806912
"1",-4047.36459314366,826.042658974604,-6060.55027330452,2586.36138279156,-4411.87825772569,2225.06335288619,-3665.79599913154,-3819.06813400342,1296.17582180999,-7758.02978439023,-1839.71415565746,844.364146251256,-8215.31214259116,216.965793481739,854.633376062856,-8351.64079842673,1508.47251257764,1020.76249431336,-8168.21971044938,3031.55648625124,1010.25677105215,-6788.85915368487,5788.27280778291,426.946847478046,-1738.78228434192,9598.40557724318,-1019.77483390195,2286.04005011742,7144.78188734097,-3515.8085822851,2260.11058085897,-2895.64519008357
"1",-1364.86681023254,-929.19670381309,-2560.23098893851,2299.12046941657,-1456.58491191698,5015.94717679072,-897.541828607931,-2718.22978811378,4284.46910660912,155.604489494643,-532.526895845249,4205.96982478789,-424.320738757264,1560.17093398224,3458.02548730037,-2008.9234058249,1627.3916405888,3730.43194414645,-2265.6895802243,519.094307222339,-5077.42856964995,660.784068154315,1330.5675240992,574.773918393136,-2130.59729287996,679.433198428357,-4964.53783626114,1234.02171505413,448.457549629352,-4903.31719860561,309.822277336031,997.497099312192
"1",-20668.4153014064,781.144229846263,-3148.10693746787,-142.458021476318,6943.13722596162,7462.43987247504,-3043.61708516226,-216.956937972579,13443.0025350084,-583.676104995291,-17318.6728410614,3111.09293984277,4176.04209476542,-9057.33189644946,-3181.31357390165,8322.83213893582,12308.1156372136,-2845.12414454191,-6147.99862934567,9622.32314531466,-86.4422397331196,-19890.1708035139,287.430542698856,5022.51940467822,-3355.46186235793,-2861.83972810276,7518.14914335241,13731.1633406444,-1923.31314662949,-7268.29091810552,8079.10850057901,326.121928455407
"1",-1539.38427786351,599.386389068236,-4575.57641253553,-7572.37266795508,5038.27214467442,-47.0204046024457,1256.18854979762,4261.32193139732,-4422.5228393759,1338.18414671233,-6302.42696525775,3102.59469351031,496.944522380113,663.061424729436,3960.02834564166,-3660.47837958545,1401.09236695059,-5337.1481406685,3051.02691637451,743.632789145011,-2607.62148250148,5542.65032650896,-3175.47437219169,2288.04060563277,-1997.58190024523,-801.891846838535,963.196314395729,-3028.62645343123,5332.21189401329,-1862.60750112469,1573.81530103852,-1283.61776717231
"1",16315.09695702,13317.3650282929,-21731.6395747943,10088.4971036423,-37649.2846894034,14020.8288064284,2546.19193539068,-25187.8362857462,24370.1601143897,-5388.70569535519,-9724.28344779548,26199.8499998709,-12229.3623116596,15721.3214506049,17045.9969916285,-16396.5466558356,8416.80766880317,-33007.6738926732,10889.1627765404,3314.62598671737,-32247.6370787295,22633.5121967373,-1959.34108237034,-25670.4601577258,24737.0148242182,-5592.9194192668,-120.65489053207,26059.8067601818,-15215.9086869787,16201.6280965257,16150.6986407967,-15384.5586067654
"1",24978.0065839899,-5143.01625894023,-29900.0874589026,3023.07337812866,-17141.148320641,24586.3360198663,-6418.12526029944,-28888.4100973945,23409.755781121,-2431.56141577312,-22378.5496788192,25280.2540516059,-7249.12992188488,13116.3582899128,20065.5536071426,-15971.1934239675,15138.5196075952,17472.8858978736,-15283.1557567002,14328.598047661,19907.4563714108,-16052.5724258353,14966.9088959618,18460.8386376399,-15448.9304989614,12079.1058124178,21900.0729259759,-14635.9159236821,-7886.7711401711,25821.2322159059,-9322.27787491434,-22066.2519276696
"1",-1781.30251641971,165.134727030899,-5565.41181032001,215.607677164722,184.509225894174,-6470.45558988328,2002.61790966587,-275.280882521093,2043.02855144405,-3156.53948442437,-1424.30740590889,39.534937851745,1972.37307729433,5109.31172721269,-1170.96062643535,512.979969042616,-6257.85827819965,613.028020392841,22.0039515578278,1268.63653144627,5625.53006617502,-1220.33981972327,328.810584445775,-6074.97752087871,2326.28005283965,-182.994237908054,2167.96655883871,-2447.39022725193,-1435.03769795007,-41.4393114914925,2537.65527798979,5754.52719713178
"1",10160.8405637722,5310.29887798372,4281.75467430994,2568.06819788104,698.93001539486,24866.8534380101,3786.92054389491,-14539.207319017,-7149.11803963745,-8639.82254413825,22768.8834748119,-6263.35027391679,-397.000939546023,1607.84797841909,-18461.7409330283,17480.4580737994,9455.65195756857,20127.7335432284,-4025.98397751213,-30035.7840218859,3133.84658281895,270.176475563312,24979.0323479998,2481.76439518485,-23990.0147169715,-5276.25681010742,-5064.75527086523,24483.4975052957,5258.06741686215,-15916.8461451555,-6523.62604407682,-24395.8297812246
"1",-1930.53984643266,9090.94574654022,-275.32447504866,532.429990399316,-604.463572596538,-2819.82083403124,-6040.53081916363,1703.82006757802,-154.736256206935,-3071.68037221354,-6773.8622668994,2045.21003119699,-791.42662601803,-2274.19877884379,-6925.3753361887,2148.41794732323,-575.651238989181,-2557.38898560267,-6530.10747599033,2150.36838879731,-785.937462738968,2940.17873521262,-5526.12065377845,1638.56341473405,-772.678533973091,5676.68214267526,-4414.7977310384,1361.19175570024,-1023.98065779711,8435.31086850653,-2609.74970103201,885.545959681916
"1",-6423.17136311232,341.641056266543,564.770462613797,1035.85239837674,-3779.36567254587,724.392416376057,-5755.53103230372,-987.992976356617,332.307184946694,-4054.31420951721,5676.89320835583,-193.520805611501,765.011800424255,6938.27304548328,-1617.49075878959,885.677904831498,-1423.03330573619,-3545.69899574044,570.254551412704,-6242.46400223168,397.395324998043,173.785065218805,-2451.29253945732,6772.63352312389,-321.024160769681,1161.22437906759,6658.98565941986,-1929.01132768186,1233.36542158287,-824.912053967514,-3418.23960479849,535.490345898915
"1",1416.63284357291,944.874876814896,-4981.71658410364,1592.71909335126,-5602.7361800983,-2676.09248843442,1307.83377642021,-983.132416587775,-2994.54681061573,1676.61120334428,3749.95918071409,-2527.54306078681,1542.27645295231,7742.65409462001,-1378.61409106655,-312.765636917884,7880.47766779455,-398.229384795867,-3564.04050273337,5570.03888850998,458.929265195191,-5321.42204808058,3003.28956871339,836.145945748684,-7921.01151892121,587.78135555276,1223.04418285694,-7273.51687108434,-1514.77222695709,1269.48555426052,-2934.82790860756,-2984.67778868261
"1",-2829.19372100151,1997.45757502525,-27145.262596384,-27943.9042441672,12418.3374312608,-1986.44264584959,2221.63117417176,-27764.6182387271,12721.7124520604,-1965.99006202788,5191.07713898729,-30522.6657262052,3668.28100047152,-195.964164984023,11369.9582024406,312.541146491975,-4443.13903046614,-799.878373116547,12247.4507161637,3325.81371500901,-5993.63115185086,2.22351974558292,10572.5888865805,21422.1817790209,-8414.41698322819,1573.83142258277,-17240.4504082317,15621.5712679414,-3802.89532622915,2067.88771400327,-23954.5267614091,14496.4877514155
"1",5635.96318222135,-1048.18410381715,468.904937383037,925.087639591494,-1112.33373870747,3314.22757468648,-959.039617575325,38.2000488112512,2622.21601383154,-1389.21402142103,1265.76811745836,-4138.73515380491,-2427.37419431135,1078.76544086291,-260.358706938153,5672.12020747133,-1059.18598677112,175.363745050089,-879.600458478286,-1658.06611797475,1546.86184620752,-1360.3034293491,2343.95234154822,-1067.83121904511,-105.29614455122,1769.11489503273,-1519.98868984157,1462.83995824063,-3498.41713354294,-981.667392244888,388.618397450024,52.6880582531728
"1",-174.446851895,-2887.08816662887,-941.764162887307,-2378.8767667302,233.480336855076,-129.28773394335,-1603.64838266243,66.9977686079023,1190.11229344104,64.7107763398821,-68.6251932750682,128.113038038304,1336.48097541322,642.00633285965,1751.06180342732,-86.7880239096184,1306.4565602419,916.608524555731,3087.33540872424,-182.912299083653,952.009403490566,674.17515468529,4041.01017448332,-685.175511780118,32.2186151164495,57.4504341958792,2287.47705512858,-1622.8951474146,-90.9098654119228,-1079.81780153478,1211.10512231247,-1907.56629913592
