"1",-4921.80923185515,2498.87283644907,-2103.72844733917,1275.87758475727,6662.69158316321,1219.05723221082,-3108.93322176484,3639.31258257792,4626.60366524065,-3107.78258693259,-4729.25620836679,1087.93785050372,920.969594542003,-4539.97543189663,-1991.86893531696,6603.71342031389,1330.1274243017,-3333.20439363856,3368.8822787312,4660.95267795113,-3214.91029832802,-4636.32793365906,1455.06542385236,399.98716956344,-4753.96059167149,-1835.81028856142,6278.95793327274,809.262974445319,-3249.05128744214,3775.64390091635,4742.08029120358,-3169.11011293219
"1",-394.32831425487,5131.78294530619,-3400.95615985379,18.5811308969366,1432.08412842386,-5145.75656063711,27.9213493619777,3981.4271622444,-3780.00512461884,-508.206522141819,5277.16305239959,-1694.86084600897,-1258.7454749019,6513.69009586694,-175.372060409487,-2209.89627014061,7073.33719632833,1130.58717164217,-3716.99185753781,5716.64947134932,3176.08657357415,-4587.56395230514,1478.29676482077,2946.04583837759,-4402.99995342717,-2349.18298978328,2023.75285448215,-3112.07389041919,-4395.5024529181,1525.69372865183,97.7192646831071,-5318.67123438266
"1",2278.53312385142,872.19090677807,2361.56046050864,7561.54639898853,3636.49086635937,-619.621287762925,-788.908303463141,2262.18496813899,-1211.41417721804,-5600.73784388178,288.927787575618,-97.7689321604173,-7202.62729392222,-972.989260069583,3916.88176644152,-1941.1411089457,-576.026580802511,4698.79503268926,3639.57384985051,-981.990610897265,-3376.51267527212,983.077491976768,389.448856300186,-6763.34398265434,-940.746982321369,3051.85772848805,-3106.27333179303,-552.587227982635,4874.88475919599,194.847118851603,-199.453904653754,5754.42967443113
"1",-1120.06190299781,-5441.46206380613,-107.292420743009,-7636.61654688001,9170.44670196767,2918.99447567035,-1812.14049660632,10979.916679309,1725.7824928185,530.88265878763,8578.72791594618,-691.3745288873,2069.09689869648,3295.67906643159,-3995.17443491882,2720.46377514757,-4066.91950032393,-6383.15824663118,1991.99373342568,-10391.2476457356,-3277.06435786549,2081.96325444122,-9382.13788718645,5792.42417553783,2649.58369807412,-3318.98306338484,12728.8719819125,2038.25475595342,1345.71706104847,7797.86205218033,-1952.6495552672,2709.22502712296
"1",6750.33338936131,-4570.31816414251,5188.50731810156,-1279.36011344123,-5060.24466075216,4663.81129482369,-369.241027827971,-5510.85284591898,4212.128867353,5698.41487577355,-3612.35759690584,1801.65847085704,8310.33704954158,-620.3692833647,-1599.81470573832,8903.15136107445,1107.43657586745,-6426.08049373088,4892.15297905143,3316.4570570271,-9740.55415487307,-1111.76368117173,4385.7474384322,-10729.9614054568,-2860.74024320752,4182.49156475886,-4669.99279161296,-4927.8004116417,4142.3673614742,950.092024822229,-5480.1289570099,4290.81230851071
"1",4790.14862161063,-2243.41748000793,-5511.16289455732,4243.99389595541,3532.75279886732,-4217.02431118356,4011.50014547026,6782.44356377438,-3753.91632979252,1430.45975801032,7688.6708614988,-220.658999254651,-1198.78276037522,8244.06303222521,388.646871497987,-3769.5396142795,7619.6142565775,2098.79137400087,-7594.83604652576,3722.16521384103,3306.36040406396,-10484.1229903052,2000.52691156469,4166.65113948023,-10591.3722672495,-1005.92727001021,4272.68943102565,-8434.06055239006,-4486.47038833229,4908.00934718547,-7610.26646438603,-4659.72767362142
"1",-1996.46499095152,-2445.38985773197,-4123.1415645816,1686.3401679633,-3357.16287710076,5908.60966293694,5013.6507694329,-2989.70985134522,-1695.90523540928,-6958.11433176468,3165.17831924447,5209.80014109475,51.1991192392767,-797.795815400176,-7570.94315639686,2629.77912076572,5135.08397490074,391.963642631669,-846.8989860385,-7467.12041192493,2716.8670840574,5296.06090047721,1221.59424775406,-842.6514642977,-7247.89111606066,3156.87539374873,5090.83573543969,-573.944815079833,-1371.68566677803,-6071.73966829966,4063.48709529682,5091.81084561144
"1",3999.73978200733,-8126.32373294229,-2460.15585411433,-4967.27076359142,4935.6239134652,4715.3634530989,-2025.22531144915,-1385.81250335949,-7109.9773169525,2849.05610841425,5045.32684303746,2794.66167589286,49.7267153665915,-10061.1163739949,764.3466368711,686.203504772412,8261.91068193406,2871.6985239492,-11088.8229546876,-1343.32720706609,3728.85080829189,7960.70600779296,2724.27445683923,-10894.8730511377,-3245.70533439164,2245.8294057417,8547.1159767092,3425.16575193081,-9999.73678359667,-3405.42698193108,1131.83457985141,8260.91141853903
"1",-3961.53444836585,3878.98930173146,7144.98922247896,-2207.35792898011,-631.659204997192,-9989.67343733561,-724.558287553949,-1779.74348893682,7167.55467308758,3964.83789177847,3534.43602573893,1714.29263783367,-8747.92780888239,-1935.95471459191,-6867.26795958825,3001.55694945186,1524.66806241082,8381.83002620371,3999.35143879395,-1247.86025433119,214.393038864815,-10904.9926456195,687.352483855509,-1996.41303258865,-2756.06936815586,1126.01737759372,8630.25383581003,3463.54610094974,-107.65750245105,532.298171640111,-10418.1404215175,-2027.0087693723
"1",5166.02032538091,1143.27781473689,-8822.69556567689,2494.91295914978,4607.38826114379,760.917634395741,-8297.0869788348,-362.416807504551,4343.57358430326,2412.22612929176,-614.171350403885,-5527.74443007514,3428.9063246538,4320.75638906828,-3589.87217376134,-2013.82034404081,-1119.29715736809,5293.35452583457,3108.73702270607,-6434.29232605871,-2132.58124408445,1507.36820304395,5762.37238303134,2561.68102332328,-9005.49410020913,-1407.6250601134,3046.99892933187,5432.97224252341,1728.52773677376,-8393.62835539363,-1538.14617553561,3249.15624368381
"1",4711.13698527396,6860.72242194222,-3359.50436096321,6140.24176564398,5030.29908998701,-2401.36023347671,582.598308839351,-7047.52285517726,5534.42762721533,-162.466119917968,4194.86694975301,-10294.545976498,-484.84444231999,-1415.95593641944,5481.03503847545,5876.74876213571,-2366.32126726603,916.193678824779,-8436.37074034743,4794.82368021328,-228.490021884752,4658.71644140588,-9528.43500911599,-776.269145175875,-939.256225677549,2435.70604401077,7332.4174381792,-1947.54580005136,3722.09188571126,-10809.9685288083,-85.2032620132594,-957.451154789665
"1",6857.331821541,956.530905017293,-8475.35547530181,1694.73617338532,3541.65707644052,-7216.87891303547,-2921.33722982268,3202.56750359046,6478.42722528003,1222.72915206823,-9610.62404283824,-425.366540463112,5211.08594451214,18.7229394046822,-2569.10980202382,60.4942693578612,6184.6228138285,2265.51158234513,-9799.02776381997,-1792.27483773613,4849.82884619698,319.445497645666,-2393.55862639473,-108.641879005199,6005.87168793849,1891.39883139615,-9746.99961448739,-991.514168083127,4968.15974462371,-1824.06007759293,-3085.98227075897,1602.37386027669
"1",-1253.05550369968,2736.78760650849,7516.31303584041,-7265.20132386665,-3502.91647954529,1141.06967611702,-7376.92408930581,-2459.03663596353,1218.13719650483,-7521.89833155938,-2038.42701220713,788.664078583988,-6870.59916789357,-286.781965786777,276.282728330401,-2635.15963262892,3411.24291268867,308.165496857482,1639.4115369283,6255.30843667755,84.8647548017538,3492.07755423186,6809.68081916249,-833.24134969435,4172.36048994342,5304.49098671609,-1846.72678395629,4463.28124687875,5388.77806022234,-1796.38303872018,3619.80064375087,6124.15756400571
"1",8352.03690750675,-1708.22477120325,4775.21226494,227.958199563576,-4660.98791618882,2852.73269125266,-9661.06172096178,-5765.68564024429,1681.28987708786,-11336.5214861037,-2982.53767127037,660.013612674447,-3539.87147000138,6118.50369327951,615.763181662437,4593.12942241812,10116.6196947645,-400.03026850174,4848.02708731946,-2598.50003384313,-5149.45447443376,2587.977855305,-10154.8680089365,-5515.73125544101,1037.85676151169,-9534.94694623684,178.452885337645,830.825890013282,-892.82484312524,7990.71524577137,545.900600849043,5711.52028613845
"1",-2483.84705593942,-5979.35845224473,-184.332359609977,2301.57753041425,-3584.42657426054,-6105.86895102159,-131.925138022365,1935.81748936064,-4695.46936614071,-5505.14688360736,-144.823995288257,1753.22022340634,-4167.77776787435,-5362.40041463827,-152.120595263253,1888.95369000071,-5241.25506855592,-5861.14929320702,-252.529668970347,1946.17840006461,-6020.2299003179,-5893.11264801163,-130.522934648446,2062.8928356315,-5526.96029698967,-6013.4623722693,-127.554420494475,2003.63876393676,-3358.87603214557,-6129.35040343009,-41.8940881290792,1935.79058426814
"1",-8434.87009934158,-3828.4280844823,-2201.87827743892,1237.58380626017,1333.68198469485,-2257.61909663313,11947.3617630344,-58.9686284985116,1524.19429887157,-12314.0300688327,1132.16199273712,175.17435766206,2588.31480105593,-10634.1699072193,-3590.23655909363,-5.51346923667741,3113.86886881725,-4812.16951770028,-5401.26208594109,341.464275283163,2276.91637185404,8642.33976496251,-2145.68114888352,1619.90092414332,-7554.63735957513,10765.4682201488,707.211267811709,1640.60924896061,-12250.5086246394,4999.07650191465,651.790887674438,2786.85389737999
"1",11384.1113589354,3996.54288906884,-3118.05499530196,-26570.3401591134,4029.57969189684,11342.5265408544,-2021.42829371644,-3978.00372322455,-6624.14643405311,11029.0580857022,6363.37731653959,-16027.4512800939,-1121.55065642894,5909.644563048,9985.53960314863,987.667413677271,-20075.6038285023,3822.32824636061,11026.9649416731,-379.504005915063,-3031.98542322626,-10758.2539762919,10042.0219877149,9114.4614553827,-9668.6885642056,-2255.65018566566,-6184.58170733684,10874.1254512698,8049.24600430552,-10697.052713966,-2201.69978396527,-4922.4426906636
"1",-8112.13356853203,2698.56945438099,935.192894619597,-1448.07040031016,4604.16623975509,-6709.26930088253,-5506.63273193157,6010.96415302073,5994.47793437038,-2559.96288869439,394.470883204133,7939.70454166175,2814.58582483603,-11321.9840748027,-1184.63651029024,5256.18482851937,-7574.54884377939,-5845.19834537048,6343.82144345835,6791.70872316309,-1759.24579013736,-1577.69899067441,6301.68209962317,3328.70670904837,-11426.7579278592,-3719.37806620288,5557.66850590273,-1155.62866719435,-4396.30832093214,3185.79156880115,8551.5723322659,1529.64205845974
"1",1559.56582104078,-5185.81356682144,-516.688506252207,1822.45128156034,-5013.09152149468,-907.314895325474,4106.15151996632,1658.78741130351,-278.656214949928,-3529.1043027676,1154.32479123656,2491.37248458546,-4115.28301851995,-1063.67245035657,2947.26160132241,1909.47337133977,427.029871299984,-5496.23714893658,398.803626410996,3323.48216427053,-3993.86713753457,-1433.2322523504,3020.46864301735,1761.36715644253,549.973479120334,-4892.60004800481,-503.149001981253,4196.46642832655,-1758.90672000071,-1344.58149133312,888.189277320019,2255.07327712231
"1",1341.26056850555,-7918.0138268067,3465.65272130236,-794.226552951314,4961.95043917854,370.104255176518,-2496.22476662904,3780.34716611854,-1836.58133568581,-1541.89957685672,-26.0313081217103,-2628.42785165633,4453.51096577179,-800.720691340897,3262.00896135813,-6274.24544645684,852.271174171366,-746.076668572505,3166.75686112411,2910.89437390944,-1978.87103759432,572.724684285477,-6205.97934292611,3297.16884366233,-296.243070482352,3405.86243345714,-3935.95749062744,-762.182228842626,-714.236251014583,1993.10646179133,3226.19274385584,-1904.31522545196
"1",-480.938283018697,289.416211139674,-534.174601187432,1521.86647590675,-688.072326286036,2905.257201293,-2535.42758738957,-1472.53512479377,5178.90615681591,-3179.91099893015,-1242.93432271422,-844.597603517217,2513.86078087909,-8042.27489161989,7622.62320752204,1082.68833546803,-932.718125618658,3126.17683331091,-681.055436026954,-3962.35433453396,-1463.97156665604,4255.19321306737,-6724.33053141271,3854.97716979222,289.571618894533,640.178242653131,-3607.24754973114,4631.62497445089,-1341.65353513682,-1488.94236447762,5381.67134602296,-3715.29828345672
"1",2416.33798391006,2959.05785725657,3116.02619789926,-8941.39474783414,-82.7892386639858,-1516.53349696497,5431.57192725489,348.670621332171,-3206.18073162471,-506.28660126869,-559.242232749751,5778.70748727026,-1285.97388667683,2426.77126256317,-9286.21042032718,4922.74215626033,-331.131944266587,4756.05892668665,-6676.04070172102,-1151.87384186595,-1249.05602415387,3378.99521948994,2826.21859983342,-2817.84581516378,851.01415301743,-6096.02249373639,6819.54917000514,-585.106200088092,4829.50137622704,-7415.41575139872,-757.440388794877,-1051.89606496075
"1",6289.47127393997,-646.681156618677,-577.252312126411,1505.16246215889,-8944.00984532759,-2690.41111975674,3192.70601575319,-3983.72195069857,-2821.08919243251,4327.75068895632,6100.44661570063,-195.125726523268,-2381.82991207889,3386.27076704781,2107.46374809127,-8753.68366027628,-3367.45915444784,3548.77181650763,-2615.87265239751,-2793.01430889506,4117.21992840971,6560.3597538385,-48.6727496157219,-2043.5011458386,3621.85279154321,2043.36588457666,-9425.41114699789,-2080.28805994373,3270.59847884015,-4685.0229770752,-3004.38782404033,4347.36541582774
"1",-4309.49121703909,3458.8140229517,-3875.78572526095,2692.73647378411,-42.8525884292945,1246.21491788027,6076.86638676856,1419.59841883372,-2712.33287210976,2998.15900820123,1657.73333526141,-7462.61538322611,-2345.60619714666,2068.10357814392,-6855.14044717432,-5081.80713042624,3118.14280400445,-3585.5837250133,-3681.13976718225,4198.78998476436,2958.550684846,-1571.72211969389,2979.41321178621,6782.94644197002,1362.51521006782,-972.123659245917,3526.82186579398,1941.78455551249,-6474.89289699128,-1107.18496142606,2526.32399909215,-8499.75683530849
"1",5254.64464981902,2699.81054442232,-4720.84991583158,51.2343718629684,-453.480249632451,3538.92972382268,2476.90564262503,-4919.75946044635,-4142.4527728287,1398.15042250813,-1959.3936494726,-4561.49814416563,2056.15214654327,6352.65495416807,878.479560726483,-1648.66882148587,1754.66332861443,2453.97155387344,-5107.30910391144,-5844.82108690819,1640.1852812448,3230.78955201539,-1100.20545123975,-610.876658677015,3254.71768791382,2708.83169294594,-5145.37930322143,-5295.77939993794,1730.9754970378,1630.24417316214,-2221.14762602694,502.840109281849
"1",-708.084828449257,3987.88240203508,2579.0340856452,-665.139138620664,2597.76233633634,4100.69896864574,-145.826810189579,1121.77698119904,3078.47729410559,-244.80792059941,-225.487631596208,2738.21070064597,-185.340578938923,-1509.14341640928,1743.24091561377,475.124667629103,-4659.3493165145,-776.549088198892,835.385503663259,-5842.15469562178,-2158.60079590714,1448.56182248634,-5419.89526000777,-2025.3940217028,2064.55109328739,-3665.21522203229,-1722.00621347177,2805.71014791285,-1173.94517581505,-1495.02246968507,3575.57325073941,2249.70842384372
"1",-203.210140774709,-2456.45710475271,5015.91795943314,3251.71279450853,-734.829023836599,3448.49093384926,-4195.45968888847,-2515.30726297493,527.981112371617,-3858.99703350747,4602.45166000705,104.655991807391,3958.33758791416,-1419.83321979242,-2813.04758713959,281.656473597022,-6789.91423969568,3402.38895948754,-457.161879357836,4674.72307877208,1878.67001596654,-2088.3364749963,1370.28507049439,-7472.9487372578,1217.85582944331,-53.1946361649324,1310.15096507881,4737.42213200563,-1727.97842838539,3248.67640271696,-4836.82210948751,-2574.43437842788
"1",-3876.12452822256,-1202.60758338075,-1178.7279792911,4013.29737672784,-266.839911378314,808.711958259005,-896.571863126157,515.751057897005,-1336.20599293211,682.029371307709,-1642.35383731313,-2943.13935133085,-2546.74927408701,318.702844193273,-873.52764759686,-2733.72099417309,-481.620760813886,144.624273493045,186.857462156564,36.6653094354692,3203.00922904374,490.129473259179,701.940904909397,941.803497349449,3690.33541993631,-33.5939027659459,857.897138406107,-1108.63591650961,-181.62498915791,-1732.66856193534,699.188313737332,-1634.60144389595
"1",151.407588657674,1076.83555074556,-1965.08077437723,1355.15439877117,-31.0005443760132,5622.18471915256,-597.9801304787,959.272647436384,-3421.41271846267,6585.70548368751,827.489080016369,2080.26960129067,-6400.96785472274,1052.22123919683,-36.6352831877637,2337.97809726786,-5630.4048122598,-3287.75081231923,-532.216137271459,1779.30545261269,149.293316953383,-3147.30939724068,114.972353235644,-797.199480905436,6939.83220378722,147.490380622814,1373.30609907716,-4970.26345472684,5784.73589673337,841.321824763133,2079.21928557667,-6339.49939186544
"1",1552.11371477264,-7718.69110877814,10820.6008121547,-10500.9205962662,4496.0465897287,179.872986882156,1549.22131632415,6711.89940227374,-2164.73964713835,4424.1971436868,-6544.21198740668,-3164.38819297844,1320.22887971167,-7695.83437861828,7971.51925731206,-84.0866397097857,4645.58448177795,1271.44654870212,-4177.61882857751,2843.68788498886,-10112.6996619985,1756.90752750322,896.004589516083,-3363.55421817903,8526.52903444932,-602.149599967555,4888.37899743279,527.249528005904,-4426.0994284473,3284.36162817876,-10420.042029223,466.080605793966
"1",9453.79569434515,1293.86769764409,-2183.73199248671,4251.9945101974,5475.07072719212,-534.503897722509,-5117.46364044634,5482.41299995915,-2843.43899062234,-5364.39618418315,5713.22380347435,-8393.76501445619,-1903.56961182633,1097.54674075785,-7273.52243630288,10250.4948723133,-1001.24666516662,6795.89437735189,-5228.72389460888,-3917.00754044243,1008.45082002524,-6363.75871425511,10006.5867253289,-1151.85853414588,5865.12101941661,-1239.56064994786,-5581.16772270464,4582.97613119222,-10093.4535796422,496.977099667907,1734.5749775835,-7526.54115649347
"1",-3196.44565304336,-3169.319097216,7268.2821805649,3433.50095920793,-1580.89709393931,1106.2131564877,6986.43949059349,553.556780391668,2094.26873966999,7454.78172894653,267.915081772129,3377.46296345407,8565.0104964475,527.008953265393,4268.4506122667,9151.88503872577,484.066188453012,5986.15699664208,5946.83527345344,-392.868381327064,-528.330116469921,-5922.96209656405,118.245156240236,561.904975063306,-3725.40076228386,2270.54057040351,302.154505493798,3721.14974800446,-4710.9140719887,-6354.76976708348,3870.36756039796,-3374.21546807402
"1",373.860276821124,-2454.38286896579,699.210077143722,-696.03540654235,1748.55484903888,-654.941813341272,-1381.82651250374,1693.90556901515,485.181912176,-1181.97555689185,1353.08180245676,1198.32566349799,-839.847304288835,1208.82328152946,1548.23906898154,-834.3145344106,1727.30757149661,757.070488001517,-925.159830061099,1681.72684701682,-360.805782382279,-960.432451073879,273.150710787983,-2424.70662880423,967.74720313019,-273.575884484597,1637.30068379972,812.750800232219,-876.816229181246,1191.78526528708,-1609.60604903787,-521.34317679534
"1",-2281.56977847762,2978.75804282199,-456.315721995134,3589.7689247216,2302.98115088382,-336.658468347023,-569.494165606016,-2684.19919838266,1708.04196671387,2139.4004106527,-1307.89289264845,-615.703598054381,-2077.15621387034,2240.68919865597,2166.92386766293,-1789.77020859535,-613.39402387057,-1982.62645140657,2058.68674935858,2134.62701820929,-1551.56900506658,-712.553091633473,-1857.92676969813,2255.19958721683,2184.06966141663,-1981.60594418288,-767.849719094993,-1843.08999217352,2438.88255323253,1934.08186512717,-1555.45093744023,-763.778098762186
"1",2642.10745532112,-3136.49918752329,-849.402184522502,-3646.88197616055,923.246644767818,2580.78290755595,1428.6609441515,254.239675572361,-5600.7698523103,1466.08848996339,1479.0418080212,2647.22033451476,2005.31093820838,-3754.33734143409,19.1563643755987,-6193.73566851278,1766.785850249,-295.832716373369,3970.09440576159,3039.25638432779,-722.307806791147,141.872235803623,-5709.44194298381,1043.37507029047,-1577.23668527435,3900.23032343597,3601.96387411394,-1738.87807486072,-2210.29810394706,2727.19434954333,1173.56435213913,-2019.60833764968
"1",-46.47694951067,-842.05352217936,7619.30269087018,-1447.63978219119,1291.29295026829,3182.84978541892,-1768.79873036937,1768.15912499428,-7301.46399250167,6067.15544753441,640.845632639141,3356.03564861767,-6527.19159459812,-3139.55142168531,-657.045027089571,1647.88783152974,2401.62887410815,-2056.92401764204,620.838466752457,-3537.43750625106,7267.913660907,854.195178141394,2186.67424282092,-6689.17675753376,-2551.47259477085,64.4154866180556,-2052.11343981815,8355.90560433417,428.35016725671,3077.77516984679,-6767.58448031163,-2772.20874545403
"1",1809.67982126195,-8951.89101282845,-562.279458795447,-726.97299093874,2308.94250258024,-6816.09578497759,-4537.03013458327,1016.80153193648,-5159.32322367516,9714.24074877099,844.856154355382,2974.03577335877,-3197.54095608687,-5056.48732235468,991.058632618901,-4347.58023599282,10255.2854762498,882.83699895779,2100.85927779152,-8330.9734802148,-3162.02162938301,228.057245544367,-306.102844309599,9335.52894245644,-175.142732307475,3140.89754869911,-8770.31711976472,-3513.25435520019,277.529874153398,-833.90454043169,9694.81022400015,-59.4956118320583
"1",1830.9526406548,-6345.4617226757,1469.28690946983,2709.87336290407,4235.10146737354,-1303.82941622719,866.758075185303,-4000.36852280385,6696.18284395016,514.3237790584,2218.09660142248,-6588.45665151573,-454.314577231204,-220.167095852348,404.021935214035,4879.80655460011,-1236.58496847781,2734.09899361072,-7913.2891615914,1944.548769982,-319.153960308125,2794.08264261989,-55.168274394782,-2987.21559128316,48.8822884393832,-757.207162928735,6146.90687401211,-94.8516038992691,860.376357707395,-3730.6624152164,6560.0909597128,428.019474647165
"1",-18.4479643125708,2440.52421675803,-3953.65456773627,-2065.61209693811,-224.502245050608,6885.6805713,-738.400391948075,-2.7446784449983,1365.48985980754,-4450.92719489168,7422.14555237633,410.484460634288,-376.173691190051,1566.6992614085,-6395.30571285683,5280.02120457282,1517.28327506814,-871.062781201064,-3128.74286603583,-380.113649234921,263.045296272872,663.937385612002,5206.68504003,-1390.08845516828,-95.8377796278113,1082.98649709462,-2476.04362738168,8048.91449570024,1584.52370343544,-6775.84790261264,-934.007206173397,-135.840656560866
"1",-1714.34123362391,2969.40308239513,5980.59631289107,5263.83455927111,-576.344739543683,5734.57054829308,-2730.72689353824,-2579.61439887797,-262.56050821855,-5354.59068248723,4408.74301093939,-953.675052641959,6558.91559976521,1885.07701869252,-2175.62219178329,1119.65198962834,-11104.0009605696,-175.468218053037,-1525.67292628439,6803.22469208695,7329.39343818337,-914.185200166124,2106.71506580116,-12562.5714984942,-2257.59242485675,-1510.84994800699,4235.98622504503,8837.38082148452,-373.028662636318,3846.05646985362,-8991.54684355583,-2973.06558463674
"1",380.576485055267,6512.26727073542,5636.65204236026,2607.33173147623,224.196214822697,319.201321580906,-428.271476019561,1527.22474342591,5828.29967024899,-2356.82676144351,6131.13626646803,7622.62502079097,-2320.02383158949,-830.464839040619,7481.85599112615,-655.581588770657,-1959.16976326623,8143.37274749359,6348.15376744756,1982.10735124592,-15654.9787100837,49.1637518942489,-644.719934005788,2107.08525364635,-14100.7307799106,2482.31790190011,8172.4792869183,-3546.84111222711,-1303.14943634035,-1181.67340654237,3341.3699270458,-15450.0429730372
"1",-9450.35376854061,2253.15055978816,-47.4668351082269,3698.40045631584,-9207.6086536173,1501.18446288067,2084.41611782297,-7628.93685637604,2680.0951698469,458.88964152724,-3124.32020693377,3983.00650878872,-1349.28507803083,1348.43083346694,3791.73599947094,-2669.78791129323,3503.64766382785,3373.50141859742,-3853.93352791886,5735.94971625567,2785.42535799068,-3757.14886378926,6055.08233327439,-811.789705585712,-2827.66430201859,4901.51964902006,-4311.28779745554,-1565.68655029393,4284.54988703152,-7230.65430600145,219.69387514115,3337.80993569947
"1",5045.47674679508,-2718.38093403348,2169.93390402772,-7082.89338777478,-529.326501412786,2809.94178245859,-5881.08275608404,-60.6630838079637,2072.26166445105,-6361.8849981187,-653.633055295993,2175.35649551114,-5513.96395567,-336.644801929893,2612.09051250695,-5655.53573702373,-604.368380553571,4206.89677938147,-4101.49672320964,-926.5102194999,4830.81421568439,-2221.32957867818,-963.502103155093,4328.01377565576,-2893.09051874988,-886.969111536514,4390.81922675203,-3215.83784620483,-929.902609953488,4508.03322623864,-2584.44242109243,-1035.04155827272
"1",7821.34449449889,9707.88050167039,1067.43306750369,9402.8872130469,10608.7873889255,5387.1644350723,-8290.04700963819,-1613.31616285479,-14980.3364245376,618.612881357538,4285.46771690481,10858.3141434681,6520.51581260535,-5204.54013543647,-1257.06754561199,-15499.1278375904,-238.736119914445,2723.40346569541,9920.95050177405,7025.06685119013,-3306.06422372812,-906.78041450443,-16260.9228957108,-1405.85260217845,2787.06600602426,9803.56201009086,6974.78064769888,-3174.95910417133,-376.564128289798,-16567.5481029478,-1792.55617007871,-739.202595103639
"1",6596.89527114085,-226.399915004092,9017.02152962849,4375.91919008441,-9635.3065972167,1651.04103574385,-15025.1553484531,325.463295959789,-16261.160848916,457.307943746436,-12488.4573860373,3307.14160202651,-6027.72591532365,6881.12585325051,-121.212972257663,8612.16022589352,4772.42621873515,9596.28024244207,7019.2795375337,6726.42044172904,5954.34654398869,-372.457864124632,3467.68755682359,-7679.13122672921,1828.7345044448,-13396.8615107294,516.739347975309,-15926.1581643033,368.656377909465,-13180.6143849031,2650.17222092286,-6352.8931494442
"1",-9343.18845043556,5006.3627904872,-1763.4184876631,8471.10712826258,8386.94079708699,-1296.07146182421,585.411485173555,8378.21105128453,1507.27693867386,-7056.73205777952,4711.58677902427,2846.86402475231,-12377.6243003046,527.927555303564,4365.12770599633,-14327.1299396967,-3639.40377251057,5512.67700520343,-8134.87615620405,-4820.8747808459,6786.06272957398,3316.71751142254,-3526.18606826237,5879.34492586831,8651.50056940158,-1427.59485971121,1638.06109835748,8950.40639297557,833.007125851462,-4161.49591903009,6373.77484549824,2100.48395351878
"1",4030.84908524952,-2560.06196877566,-1854.79295316626,-500.760541568823,1668.34586526934,-7529.04958296318,-487.430611635718,-57.075873014632,2358.43753074915,-6627.32964095188,-1309.76638078807,-860.664422977764,3877.51635685383,-3297.47990753468,-1690.28911235478,-1302.43846196427,4192.54314178383,-2140.03253042357,-2000.99860458125,-1119.69919781818,3379.73470207338,-4902.72316747609,-1532.90812652107,-1013.19708050014,3547.44811593302,-4584.63563434159,-1550.88916443417,-1070.67341146927,3762.53150226039,-3604.81415987842,-1856.93789604753,-1213.61059261988
"1",2558.29038664428,-9741.87824143844,-1539.6548273373,377.34373619076,-1252.51075324012,3089.09648576254,-8827.39878302619,-3450.53777371279,838.810969203081,-909.810203277745,-1460.25014000148,6256.25204890044,1928.76933931869,-1057.2151072465,3600.7020771126,-7964.0775003694,-3564.72235465623,631.750978198552,-1541.56543969888,2104.55133027317,7651.64975713158,823.743602397861,-908.78988499646,2560.05991878322,-9847.21302142601,-2038.7631771816,1615.98246616429,-1865.80859387944,5670.41638610117,4557.27905963769,-2928.98534900111,-1278.49619550103
"1",1399.2651076857,-7857.52685697774,-2097.30507637836,560.0797468101,3191.00596819754,-1092.36243876384,-5781.66366601076,-440.066497530477,-930.485367626795,954.10035250607,7229.71540672638,409.982359439942,-100.195572462379,393.087071357075,-6626.76425730439,1040.83525872607,2986.21867602625,-282.930056449854,1426.26606331474,-7550.94839749845,-1834.4348958802,2623.65349077919,-1152.3924046767,3584.19154721844,3409.46641855581,-4739.65214021428,-767.900878070225,-46.1393065008227,-4107.81882131102,3830.38000842958,2938.02343550336,-399.1569330568
"1",-12197.5748798944,-4670.58177197503,1362.53002493725,8530.06608602306,8785.22490874545,4875.04589194449,-7670.54482271417,-4804.45846507565,-2499.34187983191,4228.53361655949,6510.96809557329,1579.29829291664,-873.089551883503,-11186.1706871117,-3532.65615936552,5090.03308086646,9464.04120242747,4458.84916587246,-7602.24650552207,-4272.83578004502,-5513.39060982611,1536.79028308439,6630.98945447721,7920.64767455373,2939.06242385848,-9577.31449353,-5041.63427375643,-3151.09670705841,3963.87020139547,7123.68809327163,4534.02213329582,598.672978937175
"1",7374.42296477222,5352.49015823071,-11658.5908593362,2919.56455751073,-9681.58962384141,-548.285535394326,4286.72367500165,-10003.9935417796,-4861.15673317254,6237.86929138018,-1257.54053566923,-5034.76558149091,6703.228099506,8034.70588158372,-1381.89967984813,-903.108668130565,6154.92489708732,3011.7822117749,-12130.8074939493,-3754.1545114379,6446.53539242731,-1656.46085608359,-4462.03727795332,4172.0243330159,9107.57051247779,961.286996701141,-8841.80892623002,1099.35476702069,5833.96592574358,-6269.28587035468,-4692.21262904424,2301.69513269443
"1",5181.02429238048,2729.27953558031,-11256.3079514382,3204.18630923793,-6153.38993562346,-5984.47987198852,6443.04369005256,4994.79409476727,-2702.57531815758,-826.885593244123,5918.06908661509,4174.10200472367,-10755.117013979,-5312.40510240182,6439.79371529146,1442.1507416404,-4540.57641851162,4546.81694902745,9152.04492709053,24.0362719719559,-3607.01758926642,5361.80903831581,2452.80331906601,-10373.1218641282,-1901.51599848509,5949.87142359774,-2998.71330208432,-5010.96993011537,3665.19787231525,8884.53668760192,385.699894841054,-4272.95322054267
"1",-8455.99884057217,-9108.19423293538,1680.69851076593,-2730.23627915304,-10961.9855727339,-9859.0266909312,4509.46066215769,-105.083503753384,-6520.99035078392,5948.10087841915,11348.0157924464,-112.555274943691,457.619928964223,5998.93159049632,2881.47053278694,-10293.7096201355,-7632.38783345352,3519.28945826117,-5170.22225757936,-8147.55531429525,5180.63636063344,5075.42892253638,-3854.77517934884,5147.51833520303,12282.2015939761,1308.16149403778,-2345.43244061644,2637.90980788442,2557.25978949203,-10128.0792011328,-6522.31642459972,2455.41230547316
"1",4935.88780876719,-9778.70952462086,-5468.69307666509,4897.02269268521,-10505.7357869017,-4178.97027289709,-1293.11511300692,3212.66485278741,-14250.1535722586,-3536.12833607942,75.6688657594051,437.894639795745,-8865.59625049222,4097.16337547185,1969.50060301921,-623.30285302517,-2938.59191497758,7308.38730224558,2173.94550583838,-1906.01331202651,4368.36301866175,10191.3749433321,1384.64422403357,-2492.93912602756,8289.6032487913,5205.52618787592,-2208.37325693009,-2259.1950106066,5897.34090780471,-8272.00679522181,-4230.06340803235,-1877.09395735136
"1",5023.80584240663,-171.264148114553,-10097.0703151132,3855.84958747719,-3491.47138764937,-9233.84575196849,-1943.29707961204,4155.00730990149,-7149.8225441657,-7917.30053077694,-174.747012054612,1486.61303664406,-12381.8243564635,-24.988642049189,3738.07121713605,-349.498436110475,-3421.47797792333,10081.119331375,3535.85772981082,-1122.90261752797,-328.20413801817,11436.7313919062,2658.07835304892,-1977.55260950108,6200.1501563668,7380.74503773767,-6776.61187615108,-2976.27306460034,6204.04346285198,3132.86317162968,-7660.46951253632,-2493.69322129527
"1",-2234.81295328109,-756.427041263256,-2896.93465043808,1291.29452961195,-3623.38106926325,3341.90430932369,-702.914266912849,3862.46094188363,6836.378891419,-297.516274019209,5311.59328194057,5191.63138972517,554.172048948787,633.981438288095,-6329.00448217436,581.669754444418,-1594.26442427145,5308.60717544138,2528.93939608605,-859.020407042438,796.452176607255,-7845.66296585758,530.798718899508,-1042.29448668165,3438.10382635718,6915.9412196121,-869.543692415111,5468.56049952648,4025.83879020781,-961.220923142934,3586.02407685722,-4571.81462761748
"1",-2430.80318035066,3645.0186498272,3550.6130948689,6600.17445580145,-994.615444505459,1547.88551587194,5259.9909173445,-799.573983864123,-4667.24720694234,-1756.56337801452,1440.30675706674,4380.92792310669,-315.905253082464,-3015.32740429804,-649.434530315932,-104.112673153633,2960.35991948824,44.9477168030166,-2212.22805167761,340.161777724518,-657.514027811273,990.545601516587,-309.836491992979,11.7862864230497,3092.68260935911,-1086.59341538547,-2872.81536486866,-1352.86936399896,1738.00099704292,4746.39115433338,-1149.27079540313,-4343.2036771022
"1",236.052967140038,-1651.17792047624,-3379.82186696177,7579.21512068341,2194.64353722286,-536.803019735302,698.544869419858,3459.56421022106,-463.208126864654,-4456.93694443937,-1385.44109271631,434.217145500891,1160.81210502512,-541.959353439013,799.799315886999,4329.03879431622,423.963617984492,-4315.96711833877,-1305.68902537752,215.017677146723,51.2134975649619,-1157.52158237449,2181.73155258007,4238.40261554927,49.5769015187592,-3761.12738023307,-892.112671492359,341.837588993221,46.5888223744236,-1093.73028888416,1147.43145980893,5062.28030157312
"1",846.117419152339,127.64324055411,379.91300885111,246.123914567317,-1534.7035265509,-405.051579265417,1463.1202992891,1116.16661314768,-48.9147669121739,-640.397567854935,199.542209544332,32.8984442613905,-795.090161934438,-382.103349237788,1286.97100246902,1240.47297500189,-662.726571365634,-1945.08424007488,-224.932253476301,586.550691492186,49.1414668604565,-10.5074675640435,-263.042906200228,216.618692167046,-169.459802686324,-963.041939906035,-358.912632664758,1271.54205754224,1013.56925925568,-745.081874411464,-1820.46558000675,-7.43812730378393
"1",2567.78286272031,-863.748116770084,-557.341648779642,738.717209896636,1452.53950859878,7256.3887236315,793.486420302183,1350.92738641625,6309.38411708305,612.504851548538,1131.38303494431,5752.35499358282,465.986261540955,771.765849198446,5406.92590742859,236.008545568104,733.857990557058,5306.67281496427,145.712303441459,512.193858879119,4431.93652331211,-93.1468781614313,396.51226024012,3534.31883664037,-201.773248862265,394.507994832306,3343.98653889153,-379.786938636848,248.283178292583,2976.81705597259,-551.680013234362,146.507534905953
"1",-10851.9721823915,935.080087464802,4353.23840023706,6968.1332572972,5992.20172595719,10250.8269258619,4362.66725379329,-11204.1562405598,-4305.95595870561,-5748.59100529742,5943.66014892833,7274.10274071233,7236.00844474989,3162.06534600827,-11556.0721476752,-3688.26551632439,-9061.54026704308,3245.68790815524,4624.26848867303,10868.9473046723,6480.85834571046,-2769.198537226,-335.842350248155,-14191.737032195,-3525.5046891564,-5694.88910757179,5488.97307742831,6556.74709414765,10074.9177184456,5077.31509063242,-8272.15777439873,-2878.86849375437
"1",-3724.72922241236,-4211.66813500489,2774.56722707075,7958.71709224229,277.04386040029,-6326.17661910734,4571.22750425786,4693.75643838815,-12156.1766321212,-5777.03298071055,7201.41547075259,6967.1398323042,-891.463115660919,-3077.9548234148,6548.62551770722,4522.46610237284,-13326.0726427928,-5600.85926158791,6967.04960899366,7961.28588618496,-14.8015236406851,-5650.49539393589,4791.24068045361,5057.31543863421,-10777.2831141645,-5245.83921225597,5366.60558807661,10187.0973481238,2385.62393855147,-12648.4554716225,-1537.76155523891,6421.69163872905
"1",-1759.51108522422,-5231.86327608816,-931.239464102186,341.775069441249,-7932.82341418853,-1758.6908965984,1196.6416637754,-5566.78315995514,1386.84645061648,1359.6693875948,-2708.73211945914,4357.05088516131,1581.97923767673,-398.545562626635,6808.44251746289,1594.50388937278,1768.50115605687,8687.96256311656,1505.99824240462,4252.16883897184,10670.7074089955,882.717260326874,5625.12843531292,10453.8754836895,-637.773245992159,5418.21516794413,7352.37501523458,-3107.57729454064,4647.16476108365,2769.76640723068,-4447.58425875158,3340.31439853671
"1",-3375.0930777927,2983.23612964015,-1949.81856258897,-7233.22878886263,-2797.35917816753,1647.96126606496,-4810.06708085982,-3594.03769724609,3842.3159652838,82.6354191800584,-1959.49379357486,4848.84577528725,5081.26040633049,-144.270932308764,1287.87195953188,2903.23145567017,519.292206991122,-5397.00284358184,-2186.44839313345,1681.20055629424,-5918.35813206554,-3752.42267680575,3816.30423015208,451.253750993695,-1660.4662899425,3916.81234816221,4869.7484457615,176.732616234785,-2446.04529249647,349.622478771749,1108.21191023527,-6660.1109813024
"1",-5322.82294880451,-7071.12678078508,1753.29035754204,-5019.27090126812,1006.72855369091,-6257.06808512949,-7515.5482150921,730.272388212538,-6295.1022202687,-7666.33599541859,599.358082215318,-6345.7414577261,-8101.87107185241,739.074643028388,-6458.64315524584,-8107.22782203689,1098.74541828265,-6378.37421221498,-7654.88234052936,996.466941002712,-6168.0665468802,-7570.4475099569,900.839152311185,-5126.6959076075,-7611.25448500421,960.906843621562,-5329.31532257948,-7684.45937756449,1238.83605227424,-5480.59700409961,-7424.61535379367,1230.12774639353
"1",-89.1771254913875,1167.35895926276,842.675057955637,-4538.58352160624,-693.958359082055,1990.87553033078,1973.79817675656,-2510.61983197023,-1431.12500133436,532.455030964163,4748.89042791609,2787.76101932007,603.347811861226,-4283.27623956328,-5696.82001396642,-1402.27051809486,2331.77284484319,4729.55581952542,-159.652399425418,-943.343954203695,-1302.68802055035,1727.44372053001,1986.38616380523,960.030549362597,-2810.69826457546,-6115.44539154135,-1940.31541689196,2349.73703085862,6120.07113902264,1618.65644711194,-473.540438087566,-2397.21815170315
"1",-654.542280689012,3615.87898147427,-771.020079175344,1874.93851153581,2052.58248571224,-6574.239531832,-2404.86326340873,3199.29136958246,7942.33847793675,-1587.04456301309,-2059.43242005534,3263.43285425889,11078.5059520782,2434.13375003266,-1679.73971051184,2650.71188301074,11563.1392328163,4744.31895881618,-1281.99101298409,1285.67820276565,9735.29360440478,5662.56042108704,-986.595624921804,-496.260261803086,6462.62860821225,5265.4245200097,-773.027431504739,-2037.72836296315,3538.31633549751,4509.38247668697,-429.698070744342,-3967.17393957306
"1",2997.89087878073,629.193782846722,605.127544860509,-736.777716031163,-1691.8148029205,-666.799479097647,1822.9971321172,-1422.89991287098,-1490.42835548712,-528.030370208697,1867.65053387956,-2406.50678986063,-763.959419315786,-332.496517298357,1800.46618227045,-3237.56102288226,567.847186886053,52.5034874631331,1513.66996498836,-3365.34044101446,925.049473517547,111.87756016906,1566.50885590041,-3410.43978277016,840.960474258238,209.69990589954,1270.9782074139,-3475.93863575436,2363.94268281045,447.895684839941,932.653239950232,-3102.90492544837
"1",-1480.06826189432,-16059.4767150996,-9009.49928273166,5254.73586567131,-2613.43155189719,14570.961055503,-9686.8013643485,9204.22878055617,-17726.3411740932,1902.33116546458,-19189.8474267607,-1406.82117195857,-14262.9242375567,-139.519134455686,-5957.40834083903,2842.8053002597,4056.47820667785,4379.2720731194,13666.4174593455,3638.42602519673,17131.9837521366,328.379980412499,15682.828307034,-3841.28916555092,11924.8017086718,-9133.778177235,8660.69845798376,-14874.3142170506,4452.7868655441,-19075.5051120273,744.056232116174,-19783.6578392116
"1",3377.34001339006,-14742.2507184708,2001.94578310874,-749.416599078515,-328.809749089232,-9407.8270724271,851.536788048995,7189.375003571,-786.246281479373,-1580.9793103182,-6282.90315426996,3317.9426265265,6798.68272340599,-3548.71720257968,-2105.1967799063,-4322.05484421861,4468.09294787165,5974.21210888578,-4513.35002535866,-2515.86351386599,-2759.75644843166,5437.9396139796,5821.40699824315,-7059.63816991723,-3041.6779974739,-385.395786134175,6627.52026564348,4728.73569139425,-9987.78254930974,-3556.22996260245,3127.92222146511,8139.17593011755
"1",-3312.26919346541,5505.50518033336,10852.0726731778,3426.56589843141,-2376.272086948,5170.04921356811,8319.62202865799,11.2658466929157,-1713.17176600008,4492.21724020313,1518.50329615672,-10684.8751527092,-1052.34021118956,3470.66291025017,-11927.473630909,-4076.14638215888,5671.46164404588,-4090.5153388317,-3417.58040779077,6595.22754453126,6533.71193643858,-1051.60655631781,2078.30689433166,6922.11778156781,805.351017306908,-7415.44486737847,1645.42398522324,3010.43352844502,-12925.4974504735,-3907.71863967011,5225.59533834627,-4609.55478206589
"1",-213.85971162045,9109.85167174053,-1982.53076485485,1064.77418326671,3383.31130543884,-7839.86892021602,-3201.03089850735,2841.32918816743,-9814.61875295283,-1267.52878735297,1940.47063610681,-9504.48135192916,2667.16653611628,1588.5565828605,-5794.79386465058,6142.44723257865,1629.16690186704,-4233.17877999126,7370.06164768551,1320.57567881777,-2741.79475968597,8548.86066075707,730.097064187843,-230.775019357874,8294.62439837114,-321.539546830905,1382.49822366971,7594.21905588645,-686.492878398639,922.052097143553,7806.65325861346,-99.1502445487267
"1",-2996.42600614639,2381.96569051201,4284.73103814438,-848.516861759205,-1639.23413639148,5134.60290440175,2636.10084831744,-6681.01518289337,-1281.40200340175,3929.11746299981,1560.34491885263,-1864.13755897855,-2964.42373520149,4921.57671009719,3163.93472048626,-6440.58034850543,-1835.89924464824,3184.61112664741,3496.25381175776,-628.128788299573,-4542.04793312724,4179.03285450138,3721.33700121197,-5913.60714361685,-2282.26233957115,1861.7763580282,4651.93622087621,908.18320006522,-7555.02393649507,1251.01655741122,3675.42679418109,-4309.97818623151
"1",3848.8094407727,-7468.83534796524,-1283.9084962814,5502.89649872472,3878.68163071501,-8232.69151416058,-18.331877551084,5024.00797562467,-5334.21736437178,-3519.21447315479,5267.87468168789,992.829819593821,-4006.99889937262,3133.63538560932,4325.15425746755,-1551.19776510992,-2726.94749868152,5528.50770640814,2023.65638653284,-8970.06437116044,2249.83438954875,4556.77659681115,-7428.58403228305,-1840.12643960354,5496.92215343162,248.024681841843,-3625.10976978677,1106.14139942718,4619.90853832953,84.98194207314,-7136.91497546725,3840.23952523415
"1",5037.30038304568,1506.80524633214,-6314.86780678582,246.5632798543,-7408.91230702164,-1658.9121561554,-550.138454799752,5529.421933967,3960.1571009186,-6851.94105139159,-1435.4413282588,-1603.11346313646,5548.82625816039,4223.42677879559,-6277.11663428258,-2015.97726733765,-1324.30647233556,5973.25931260882,3942.37854925401,-6844.90527244939,-1744.72404476,-693.038888693962,5311.59345460429,3762.29582224048,-7152.76357146761,-1453.89939052227,-204.922635445286,5558.12627138859,3102.24151873624,-7738.77970051013,-1151.92947957379,1342.48125366147
"1",709.127049435327,8256.77771700026,-1064.67269019332,5095.32157415486,-6406.02229817368,-3600.05163018447,1555.14777734485,-9982.27549615227,-253.701045113227,649.592696112691,-4330.409494878,5780.77727470019,-103.23740854016,1875.13972811439,8175.60077805674,-1101.08851784703,4862.284721419,6631.35666469025,-2456.7169338117,4527.53703315433,-814.961126935641,-4061.46679944289,3031.81491591052,-7117.16982111127,-3461.72753509057,1503.97029355398,-9611.40583077732,-388.969418828991,445.841020986596,-4614.60373562967,5305.99961865138,23.6323958874706
"1",812.312579133569,-6249.32076652215,-5962.48011458561,-1493.42489383297,539.497934880279,9630.67731110632,733.370351080238,2060.50181637754,8664.95983604431,-2771.28314395144,1662.97899752496,3779.25543969369,-6417.30013527354,1007.80138161147,-2001.90750589026,-8231.26722959145,641.191722596161,-5408.80180010368,-7172.70532266762,691.375029107991,-5281.57940513821,-1698.37577442989,1815.10951591047,-1986.1382502156,6380.21547848688,2671.81116892058,1961.87313569014,9621.0871917584,-1386.20913494698,1877.18468047057,1487.29800045908,-7023.67109961574
"1",-5739.25384449724,-2576.57436133767,5063.54574922518,-288.503109775517,2143.24329572991,-9614.56168795457,-6216.75403842701,540.888676474362,-7427.82098462341,3210.73413442889,1985.90324622021,-2342.34853832441,8625.35891863996,1718.09973300229,1721.43627554779,11543.3063998144,543.159675356216,4898.32152021809,3848.67250249301,-5145.57026041723,2069.01890392657,-8223.75491628583,-6550.10500642333,197.435834043313,-6616.58893331709,3428.05382977591,896.613184716181,2954.2162239965,9110.47406293785,-406.546754843283,2678.99898797164,-6489.41955048526
"1",2438.78148942968,-379.250251282326,2503.73564830591,-7658.03912981505,5252.11103507424,124.826902436621,1700.24862709293,-7438.02563300927,4430.2949350973,613.388757959132,653.191823678281,-3524.29085571826,6133.10529480607,-154.55230591496,871.934188720576,-3979.90950137551,5549.99527234576,-381.242859940825,2565.85035069496,-7808.43152675843,2001.87923050173,56.4805041292549,2545.63889025938,-8456.02068613433,2933.05610101212,509.831809666672,2213.88871791728,-7964.40130456771,2979.37301523408,285.499458212658,2569.85300258762,-7819.45684417178
"1",151.046160326268,556.504077306826,-3214.88110059099,-2614.02648757481,-2279.63457913859,1385.42200262305,-5944.35923784157,-4191.40761891656,747.183368677408,-6393.72772689459,-4434.71292371702,917.27818818254,-6291.70808472008,-4682.31123964063,1270.43667874763,-4308.5564901152,-4156.26316507396,2281.22303665454,1663.70168002438,-988.529496294389,2478.29583013465,4929.29040144755,1440.24901423253,-2429.05192789069,-629.536013595883,1832.13196898859,-3005.16723387635,-2655.05016390891,2155.26822547684,4704.47699903709,1342.05287184741,-2506.01036270996
"1",3849.38168804349,-478.921347514561,2161.73481470868,4533.9970048318,-640.349053859138,3034.97098002755,-3104.33420887919,-1650.31475495508,1466.20321886503,-5778.76698052193,1010.43193774336,741.820846789363,-3775.67752086869,2767.23588686825,-53.2446840381318,969.088143565948,3572.30959717963,-797.765247967546,2797.82018473617,2310.85535269415,-1621.39093620335,3083.79291804045,-1838.22613723875,-1760.79922453371,1717.4960343051,-5398.29369666294,385.313860305272,766.160815481896,-4697.98203771065,2088.27971262791,-76.8480507756446,826.20086830336
"1",10510.1087998228,1714.81771011818,-3601.94676787516,-7287.30819156402,9639.67683447029,2781.97385136341,-9600.14659433636,7244.59144587224,5652.35864320507,-10051.714253942,-767.313318058056,4792.46485349533,-2907.88734708286,-5215.2997686484,128.688619890991,6225.74403780572,-566.390784947105,-4945.04010593883,10274.1356952934,4492.64052451064,-10793.0891053208,4350.51472487685,5888.46240157589,-9343.05798453234,-3611.69433255334,3537.56148885615,2157.89722945335,-3748.34119122097,-1685.24100272864,8826.16362659226,1156.56651726914,-6046.40301146205
"1",8935.97775665245,380.813514775151,-375.407698996148,2523.23097131996,-1216.49256164536,9340.14935093651,-2066.0108699272,7615.34827289226,-6289.43837293547,-3542.8022803079,1396.41304432485,-12430.0231678667,5203.3649736903,-850.401132933167,5854.06982089634,9503.34444490574,-3170.16332846295,6140.27166427613,-11000.197712342,-2235.79890705009,460.911184972939,-6599.2421050715,8438.2897932131,-1679.67772424537,8933.72119773956,3772.85759022918,-4342.2541942666,4295.87542650334,-14990.9062394182,-444.456896779281,-126.566652212979,-1277.44058228262
"1",-5550.9547565307,-2404.94630586026,388.860931092141,-2877.0794505383,5874.91879930204,2433.73461452263,-5092.27064865662,782.760039675893,1513.41429857867,-5132.7442880045,-2158.97825536041,1058.78935223833,-4368.82976530567,-2722.38144668716,611.483377073789,-2989.7197957281,-3006.4725943717,-320.999841435274,1280.60796328627,-1605.18934998978,-925.176224613426,4768.42866649895,-105.921597175687,-1253.83513772442,6399.69370888825,1282.00533129585,-2702.47033974139,7202.23731905873,2287.54264064912,-4340.12576841818,4303.0878989207,1727.84278250142
"1",-719.174006107626,4069.45633691884,1276.671057788,-2152.02276218525,2241.08744914636,1520.4951505957,-3363.99709512856,-1137.84886736127,347.485811602893,-436.327734205257,-1514.25314520903,-605.424339578885,3795.20106541366,1285.91276574719,-3016.62724336436,1268.95152477849,1181.39893691116,-1995.78834139206,-2294.17065846047,-642.809651209059,2664.34676738927,424.458364834299,-2849.99244178416,2098.36182420487,856.23260916193,428.904996170023,-960.347021153128,-2184.9477849912,3327.09270855517,1344.60135535782,-1944.96338497032,-1778.88377290233
"1",1412.45605224544,-1321.31111271007,-719.181935406439,362.910299701855,226.25543213204,2466.34374083518,-692.269573710976,-1588.82724445004,-744.56435008774,295.756672143612,1990.89835700801,-708.244393787202,671.016655393747,-3114.50433773845,1188.57664514074,510.201149096472,1291.20920821365,-2603.52137191518,-890.616305968838,-133.686155017459,1605.33768494235,2427.91997266058,-1703.8577067315,53.8516427559914,-2696.73365790076,3011.28590343679,309.116597930611,1512.545042381,-2545.43664357562,-697.292966453021,-376.501291198724,1686.71386384677
"1",-1575.6848328153,-2411.88906193862,21.7759826085397,2921.02709013781,1182.99110496871,-1330.14192756217,-1009.57799059716,6808.52354041106,1974.39885314818,-5783.64985153681,2285.38661995864,2102.41532694646,-5916.39232033874,-3359.30873573638,1162.44226566417,348.681261896414,-2553.00571001518,-126.207446966102,5999.6309817727,107.031727474279,-921.14334500377,7349.6786790692,1502.78800893083,-2115.84369070289,6399.08351239059,2014.99736429428,-4862.20658873525,1825.05333548942,2002.96546633321,-5477.44715867909,-1738.50690900163,1160.22200340794
"1",8010.94290608366,-782.785025121136,2072.49190521939,10294.0506170343,9024.55470215789,-1422.27502526826,4634.91529358282,5503.81997831777,-2397.00533094306,4735.49770347725,1483.45847810878,-3615.68084867944,5244.46765455795,311.801048103437,-3779.30940408777,4499.03456041531,-5334.27236085838,-3343.71230545641,3232.85688161131,-10344.1295573996,-2208.41772774824,2034.6453386689,-11423.081784058,483.8139227889,1097.67677645696,-5924.86582905337,4778.36197579588,892.665269354641,-2538.39333047846,5927.89308896539,20.9093878602815,1094.21732716781
"1",-8107.97515763248,-5268.54279894741,6809.16535406395,-18548.223315004,923.300288597147,-818.42691179102,5936.64120613588,-25534.119367541,4259.20014666924,-227.151375442294,4983.19181520498,-25163.4710811671,5613.96921954595,485.362159827119,1246.8405034509,-12166.8392857554,11514.5856353075,65.8954062528841,-736.995584655314,-3771.26602982121,14374.9545729278,-391.866071741394,-3627.15480298759,10318.1259810111,13070.2852695777,-2733.15048396347,-4090.17865296057,13869.5116741159,-1698.31845019369,-3779.91877694804,-3823.21618903362,12982.197433423
"1",-2442.47340886229,8467.77152826052,-518.60825512363,844.033281378612,10221.4218326777,8801.25932164882,-2008.99688006588,4182.89674988523,-17701.5781663837,-1835.64902906022,-2724.93552227934,5999.06869114339,10820.0032636121,-1251.91308348478,5656.94898287606,-15261.9344037817,-2350.88251929446,-2313.79779253952,3297.43973633636,9661.3887771016,-1229.6230653627,6195.73535433196,-11506.5794165421,-2714.02743176461,-1885.48665426618,1201.87871004408,9018.61817242534,-1630.31022331967,7493.8934771133,-9850.23867572083,-2427.30800209756,-1401.28267534019
"1",-8706.50872614674,671.359554365219,156.19368118659,3275.8233111593,-2819.76513045439,6402.0873146987,1426.73114757659,-4759.97907910144,5765.24421818319,2380.47154328998,-4426.07078723742,3501.3385599794,5109.20498118887,-3882.81910856687,6212.22029572543,-1676.22506775861,-3626.08387701149,2624.39684556908,-10765.436538594,2405.14472582775,405.032930752121,967.822128905298,5221.51236292983,-2546.55255715072,5268.3548795758,-3313.48206823844,-2669.7766089678,454.960973524606,-5356.01715245916,6475.17298166705,-709.760634229338,4715.71501053722
"1",-4772.20740176351,6757.39830332489,-956.062031818525,-3384.94510046354,6582.15532134626,-2881.14750635462,-4861.57061962113,5478.50433947687,672.785923299722,-3963.42969032252,2237.331670214,3381.80808189329,-1926.45727746727,-1065.41655288762,6352.88708335617,191.990363275353,-4234.38548445356,6524.3518315877,2031.9798074136,-7895.13168244282,4297.79878409637,4270.002000138,-9729.81352791577,2435.23566934948,5418.54720764612,-8949.30349605875,-392.825181020118,5159.12761471025,-7939.09340955351,-1657.30639164394,5869.7577802727,-2532.94568154601
"1",-839.771110235549,-1998.05580690685,-555.934056104602,2184.18869388593,588.37744364552,-2529.9079694475,-407.058971211565,329.259975592672,1641.85120306574,507.786937352562,-1713.02563576704,477.606715316444,-458.454837604583,-982.116487964589,149.780729344861,119.894111220805,1738.86660874101,-87.5348365783712,-896.158786542286,-373.446598774425,-337.41868819372,1363.1150229143,-579.667950081082,-1247.84768790607,125.801180005847,-269.107788539017,1621.4068979353,-60.4697805740743,-663.005926208985,70.3938679025045,318.622126902754,1382.21598747294
"1",2774.47419216456,-1583.98614181883,-2426.63801389474,-5797.73540250059,-1707.02878356216,167.506841175183,2298.29443902439,-117.793064447004,1747.93937608217,5102.34131801103,744.18055935883,-2087.03016692281,950.472096487183,-171.549077928879,-2757.11724111744,16.7491552446357,-1204.97780607277,-3805.92501768607,-1119.74850383455,-1575.81414835352,-5047.1018413178,-2382.44579168046,-581.632507032209,-1894.3984605164,-1818.0761692252,272.662780923344,2389.68744420614,-347.685242775565,2329.86287713888,5963.38407652815,639.06107297801,-662.909623035319
"1",-1447.30996082124,1921.00918568693,177.823207658504,-1316.23222518008,2592.37097776268,94.8393398087794,-445.984327243018,4653.34974543798,-295.745801076307,-3344.30971629438,-1456.23075134111,-1818.63500000431,2792.13080269778,266.137345388294,-506.076705996599,3105.81981222182,-775.558639393935,-3191.3611903756,-1880.24540094524,-844.425061280367,5489.63638115071,1325.86835897537,-2412.91681765244,1220.40415420768,-964.116314791201,-1460.60402384112,-1954.03740246107,53.3545579428779,6114.65868425609,755.572066297733,-2931.74654153543,-1304.55697295207
"1",-1090.38683430173,-2423.3069680652,-8587.65356673682,-7500.37936811583,5117.51918180366,-80.9079101802573,5007.41338869473,1983.06465400342,-1008.69304380729,-1821.7925651859,-10053.3808269651,961.438622329867,-882.783540964798,5646.71538424601,7890.81981262027,-696.929537911245,6101.41825175055,7481.42324732357,13.9446582541566,-1119.42635701288,6391.97174424326,5943.12216796571,-210.331736733341,-483.22306185143,-10107.7197710347,-2396.35604194828,-1426.98072169657,-1742.34527727419,6903.53864575151,135.5258462801,4583.46271237111,1147.2769307799
"1",3572.81962730683,1594.33352902559,-351.260850463968,-4315.29933523648,-4496.16424860395,917.031344761359,-10212.0605720228,247.031437225344,-103.890107440119,-15.0152151261272,10966.5092542157,368.973697451381,3633.45331708746,-374.056901250515,-3356.43347143107,943.366722828061,-10594.3431959129,-691.727174412424,-115.394013226851,-814.212720326995,10002.0669000272,323.280475724466,3623.26651813929,-94.6479975173491,-3538.06424979068,1734.09506146605,-10379.4426366985,-2111.67690407409,68.050907721304,-1964.61341817419,10076.3411262349,552.573193581867
"1",10539.1576505176,685.039408507544,-1042.39917480087,-3201.90766472415,3833.36147861359,8312.25274351596,31.9628601319036,1624.52108918039,-5594.15097085431,-2985.00077004445,-809.764550512447,-4373.64387417083,4687.75565224539,-302.845679582535,4942.12555384245,5241.31818503878,-855.254247428608,-130.616838824334,-10678.9480018592,-1555.82292468276,-553.538403228988,160.881251018137,10006.4869600739,635.063770782991,3486.98519413325,-720.719529353619,-3047.61242635954,-749.845232806119,-10205.3603924666,1578.41935690308,-560.228497604582,4648.99372321901
"1",-6555.47637670604,-2832.01511989312,-1247.79682533602,-6687.97003096115,1936.72782941181,-4574.17248154232,-3127.22634335408,1525.29885073592,-6810.05547250044,-3031.82809565735,1688.0813659202,-7103.01234435699,-2514.49668907118,1762.70468247422,-7088.33989090746,-2762.61341458011,1527.7463860639,-7232.53384485767,-2138.65965007393,1457.41816114904,-6995.53535415395,-2281.95823849763,1250.17285562436,-6555.59964252567,-2643.70793803562,1564.24189192696,-6946.6173361932,-2776.99791432681,1413.12068716842,-7039.25779325086,-2735.39184770135,1487.90401769312
"1",-471.477233020266,3615.49070941203,-476.242565405772,3150.99674787224,-380.866446903443,3044.12458106058,-1099.23438551943,-1683.5973227574,471.245279700814,-4426.37967837393,2927.36917765378,-428.424938092866,3422.54279633534,567.034881754306,-1770.82034659636,676.041780741502,-5256.48855821242,2699.68963801283,-202.33235349958,3050.27284166146,-295.45643742178,-1847.71752801781,452.151312228529,-4166.07044722376,3175.21680725483,-332.265183729556,3223.98201015237,-443.225271574895,-1692.964359305,516.361282202468,-4675.59186542755,2874.94143973408
"1",3583.19903056559,-3873.20335162796,3044.27764230386,-2963.25089234996,4080.16523803884,-3363.824452589,300.635309792579,3579.2579381012,-4243.86122534727,4119.39716192112,-3334.16969896061,222.976403767269,3909.56017824529,-4249.89444939376,3790.40673625125,-2898.38183305724,-165.982137098181,3943.30373147298,-4557.65232386795,3855.66624341467,-2751.30153737736,-197.004351988539,4050.3547797247,-4563.28323397109,3579.98821638617,-2593.2406384545,-76.7709787613188,3983.42943367507,-4425.09675202246,3780.33506447133,-3011.87970899239,102.145710001465
"1",-3530.38813065045,-4179.60797980663,411.907923277345,-2051.84249821972,1099.07576768021,2180.68884243325,-477.177844597588,1582.13922711161,4357.24850160376,1627.17411246934,-1982.92350135655,-2212.45576071408,872.192749418354,-3209.97256553125,-4403.93202841321,1706.43455706991,2689.75424177121,280.889709030318,1615.85083697202,4767.60949672849,1835.18054474424,-1422.2269332605,-2195.31946568244,856.769573894137,-2845.88412032115,-4035.56747484908,1103.44372840551,3847.50016653708,428.157570613154,765.095868057326,2258.72738229993,1567.99768070059
"1",781.846218894269,3181.95688184093,-3620.55936589289,1099.04007851945,-5111.15756155655,5349.3185018815,1917.47658727205,1992.42139580097,-5406.9739677383,-5993.58332800262,-504.150797974309,2697.58561826993,8202.04299365965,-4040.80240712412,76.5289488208207,-4017.28398270268,6735.42063222389,1674.03694809136,1980.91038694451,-5255.26105425765,-5379.96616610848,-424.256719293451,2517.53516646338,7727.22128394785,-4212.49466631658,-228.391282216,-2634.27802671724,8313.21380300252,1595.73972558473,1493.08219832653,-8459.70715901186,-1340.73860152211
"1",6759.75818648675,560.792847806495,-4268.56059952117,165.157552315387,-2292.24563455515,2045.82113252426,6146.61962846234,-428.667791419568,-1165.65904215862,7267.77679990469,741.759361083384,-4361.40990648057,6359.65741640432,1796.80018162882,-7784.00615168192,3604.72417153224,2422.8810968386,-9402.87702375376,379.07022381422,2830.43945206047,-8188.24096388119,-1630.25479929766,3797.24090440238,-5081.90445243666,-3978.72529039984,4862.48772102753,2292.23342223976,-3091.31730169548,2259.46031612544,6836.84984454734,-611.295025295299,-1560.29404755904
"1",-688.304651245952,153.382833426483,2198.93009709158,2765.26046251781,1960.76079816694,-2450.93166356943,-1041.93211610869,-539.744482820433,3135.05123037981,2391.66535294098,187.742041196024,-1135.3318587762,-1965.1229795523,3010.21974921071,313.794755055625,-58.3965929112952,-4463.47603166716,-674.112447760368,-138.074371296065,2851.76880806483,-536.70891950713,-998.627203456752,-175.951010733399,1361.19320707509,3110.64815561366,516.586194938953,-876.837187049758,-3486.12501675168,1983.67356591731,229.22347062672,277.464362298149,-4029.26398648806
"1",-2823.93350032429,8154.3658083863,-105.214522218584,1148.98680019175,-883.507009620934,6953.69693305331,1075.34432419103,-5901.96763889195,5204.96204329431,3435.73117539139,-7415.26819378022,-598.754883414342,3461.13077232802,-4402.52124296454,-3752.2168665414,1216.67436080962,3862.13332696454,-686.69643895595,-2728.95659463454,7835.86436214494,2381.78197079712,-7240.91642630507,4233.0455493401,3319.17421514565,-6750.23758277574,-1717.14028889897,3451.00730903535,-3322.4124985819,-3781.77792213697,1149.99190737834,4163.34790574632,-541.238266143649
"1",-242.204120016671,-1856.99861524065,4963.95602191778,-370.722182126843,273.346384910193,-4121.29110152609,1966.29152589107,99.2103803338171,2510.2592338237,-2937.38458467347,-2925.88973431735,-971.426689762028,1235.79754997892,6145.81460960697,282.538366292294,2071.81322088063,-5598.59588624196,-3226.97021154217,-892.118863349757,1393.33440334141,6141.56774467066,233.585340111947,1875.22384435191,-6070.08905610846,-2766.28246886008,-935.018937620699,1893.77810871519,6200.97131810402,-82.4823992748769,2234.7390678783,-5736.85079023055,-3242.23759351703
"1",-151.497685161708,-1907.11478812149,1141.63925852348,-142.675634069899,-422.57334447218,1407.94820465238,1518.50137950807,1040.60825784123,-3164.36545212672,1556.44984465748,432.675986514249,10.6855485099385,-2169.17499964411,1260.44217199776,-2789.03480788292,-588.72206092663,580.690084273029,2111.41645715928,-3104.67483581941,-455.504120894069,1619.80016157974,821.788704755633,152.844571377265,1930.37831866365,1014.46389133038,-2352.58629773349,1764.10788715822,1429.63125018578,779.3302697757,-3165.4260096642,1720.81733700871,-718.391059289885
"1",5075.6959593333,-1710.59660870297,-4291.32262984072,818.070979514288,5511.76548487967,-608.442171102997,-7248.03784274934,6264.60194552062,3262.43388929482,-10127.2732172331,1896.42578733419,5333.25712732787,893.422380399816,-2977.67870836696,1946.19282315654,4413.4655516758,-1660.65931683551,-2725.39738034925,6640.39422703992,696.548563035579,-8452.65574723839,6450.6403043967,2603.17044321749,-10876.838490988,4459.85374963184,4318.74605557056,-8823.33716638712,598.40746722739,4286.15752743847,2920.59452316323,-2703.22323347821,699.843842551792
"1",1456.18682526521,1599.68879963957,-2719.97630160341,7359.01937291589,397.864404065186,-60.1447313591466,-2645.41226289784,-454.798122143335,1891.16059861828,1679.60584092801,1310.21451698647,-3575.96385538863,-1097.78110646268,-542.962867517829,1928.8299185398,2175.61485565476,-528.874324152669,-208.318517790749,-2571.21667263268,53.7337413527366,2009.80067482905,1161.6556378829,559.251952413759,-3376.88574888911,-759.690417748832,460.140141983535,2465.74028873758,1983.6172585422,-2232.46733134871,-915.79594829376,-1798.84709252246,1092.10636277508
"1",2701.2365379153,1917.48685885341,-1726.08725993162,-7741.23489049654,-69.8675584037536,-7938.30265289155,-549.38243505304,-2153.54440445075,2476.83434814184,3805.57634947885,3393.47421666578,5264.31157464342,-573.362707470432,1660.41051419163,-6919.35108353412,-303.347662926383,-7185.30964063051,-25.1723687160161,225.927769878935,3181.73485598723,4982.38496172478,3343.14659602994,4711.77959778442,-2768.57178715104,683.680480557914,-7640.08448687772,-354.702124635783,-5697.38261463215,678.606091712017,2415.43123722103,3256.42697901293,5737.7966095286
"1",11039.5336480179,1804.70388139893,-11786.4299076595,1220.74741487043,2294.49579247648,-16735.9317033711,-673.075597808272,8498.94362905682,-3207.25645084136,-3656.90770952383,470.691607292511,9424.89050048873,3482.39509526956,-14430.6171556348,-3778.41950232322,6751.72237079844,1699.92034709729,-1956.92575306575,-1235.88716322888,7176.32966866017,5092.4045927892,-16329.6433391969,-4021.19279220082,8757.52160950876,7225.1400447388,-418.67153148222,-8871.38681946697,5663.31757580869,6950.51062415621,-11808.4279696185,-4513.97081998374,5650.43062568557
"1",-830.453944921057,-1299.51220808431,252.460939671959,-3462.13940234602,1880.0850867795,2397.81458760145,-4491.42625393688,1650.48890754907,-1920.27570695198,-1163.17501320899,5110.51086033105,19.4011253395834,-454.253232361887,-328.255370052125,2414.69710172359,930.878965845561,-7045.8659712417,500.285455817982,4678.72005362732,211.026941077968,-456.692681782559,-1885.41361697658,1874.54210074614,2692.75628410298,-5619.69991542111,212.182260718343,3164.75519014753,2285.12536371017,656.090547375742,-6725.02774787671,-275.571974621635,4837.47014559787
"1",2901.74437690099,-4541.82837998799,-720.662823233294,981.389323603213,-342.502793562712,1041.85568474965,-6766.8612007377,53.2381474415411,-279.472184051371,-1594.05977465487,4038.37726129631,3864.21244495706,274.262342542514,-543.652634738744,2055.0924690987,-7045.30886510548,-838.256414488965,77.1881813068806,-1693.12191727512,3694.23988320372,4435.12326174499,220.672088018459,-861.907534868437,2680.35910214344,-7386.87738971087,-490.013800745342,28.3655194265852,-1055.76018934629,1528.79913134855,3104.51041876108,-4.21623968279308,-1021.88106560813
"1",-205.217170053841,2253.45332115694,-5607.96371746473,2108.2698004739,-388.299350567068,2968.65871488768,-5987.55562792344,-442.332986569535,-356.635103811702,1371.10442670971,4381.66878624,-1533.88542968554,2046.24376525557,-7718.31108342843,1043.45020683833,287.010827146354,-553.919579686986,5055.66128509025,-1209.6890800549,4215.8003919156,1165.18655112473,-2504.8337806866,1419.71046710612,-7727.15185603835,2258.71133160324,-289.069893918248,4272.71589971044,1007.00519573848,-2478.45674906401,-117.026131968127,-2637.74250288527,5124.14364749849
"1",-293.646114917538,817.847955449156,1607.83947689727,1224.69448819361,-681.156073050383,1824.66361270072,2222.38539385397,-362.743677265103,1678.23769769465,1584.32886898238,-341.031945252337,1443.32601828798,1572.67381707668,-451.573883079464,1268.58047193673,2017.47450710421,-569.650005564642,1808.37847713369,1706.78377077256,-486.532377259047,1188.34173619977,-2126.41478157473,-483.067890051942,-110.589503914825,-889.326935362003,863.743998219276,-114.024319139694,473.169481135423,1509.44629167591,-176.487700172034,483.704215655666,1606.08133781602
"1",-1337.27476227318,7729.46329370471,-1861.40932705398,-13596.1602166728,-2835.40632251504,-1061.28968612777,-8372.99346239518,-307.126914679049,-1383.41835217147,-551.321558201304,4121.55657141513,-1627.70885512528,5753.62097818111,7736.40963158594,-2002.47063013378,8920.59294106909,8977.50238427877,-2055.51606938706,10292.1139945629,9543.31687432615,-2059.96602485399,11381.1470957091,10329.8715030536,-1697.97396546563,11605.3594691132,10026.268532894,-1063.17395886826,11070.6234649785,8247.90141364934,-1014.79354172467,10184.565856633,4840.96653041507
"1",843.270346092722,1150.19222531287,133.745584310077,-438.762211795651,391.141684526218,-804.103068030853,738.621280006109,171.717637613184,58.3490096759893,-398.842904991301,-1567.30063161767,1275.30355592888,1151.32860041419,-1395.39889681178,233.758567582785,60.2361212598246,-74.7881520384986,29.6319296818121,-748.323936530476,943.096551644309,949.356555656573,-618.640316841447,-360.602009148366,-647.860578654543,892.800434547012,911.39055064532,-1341.589683113,839.500851920599,-317.253963118996,-324.57876215724,208.00364761304,-1075.58321797045
"1",-12.5367130181802,-927.373239095335,5644.52879347778,-2947.1671659714,4203.7688911023,4531.40073917569,-993.092456742306,5701.3815771859,3213.02981840739,-652.964674241323,5722.83085206058,3262.80787022509,-1165.14616821339,5992.02634095134,3080.11817964555,-1254.7346563008,6375.91262032857,2731.34775063319,-997.934956889232,6089.42934851455,2214.50428490881,-910.814409371641,5302.98234022164,1148.11933636331,-1036.4179268683,4905.31261360216,273.597255103644,-1182.65337090176,5378.14984603708,-726.43263699952,5751.21848304035,-102.815375797188
"1",3078.36847070296,-1135.44471167277,-1978.02089038371,6671.43765864071,-1806.78616685693,-568.08870616101,-619.048657722697,-644.884825356778,2844.5954208761,-10846.2457045643,7588.52774452159,1298.52204010324,347.135999739589,-1234.89078096896,2196.2976784938,2326.92055727777,-3670.32491004464,-5.48955395038412,-946.79116681398,3807.97068073178,-6939.54429930558,3426.7579080149,1115.66759491364,-177.341366144455,-1841.91269271706,7470.61515278023,-1397.33893509168,-1553.07935348651,-283.903621061494,-488.008541324243,-121.140053002235,507.017410974885
"1",-2321.51969825313,8395.26887352267,4079.68163095735,3179.23854639428,2415.97966316727,-12802.9715224264,-1405.83322551364,276.164935750384,-4709.512566938,3435.32703057165,-1254.25921016723,3801.64244212932,5675.65168163788,-1832.8586250211,7302.829349756,5949.61229333405,-1907.89272521437,7500.58754446631,-1792.67714221413,-2040.50485086749,4417.2759657353,-10456.98585467,-1560.8029927754,2033.60036410218,-11751.049537666,-1342.34159727377,352.346756037225,-5873.01061655125,2887.24402159246,-1226.57165874307,3697.80615472814,6390.06077477238
"1",4810.22514507923,-2921.98904363499,-3155.44634694062,1935.00830963759,5038.59545552228,-6408.19068237439,-2883.22605905526,2193.8982258187,6335.97579344445,2608.1252047987,-10830.8106342724,-2710.25051484263,6177.70020547444,3754.2914137174,-1351.46849916951,-839.872714685773,2751.09479948724,-10845.1574550293,-1447.40449198295,6083.6272627118,-9888.417074121,680.123712100703,-2231.03818941762,4489.60623278829,3939.38939325232,-9983.49359723939,-3627.51615093646,5784.84834317277,6272.26160017407,907.284925057836,-9002.9339968082,913.230179643087
"1",307.811010245224,-3490.30053540745,2369.62259979362,-826.173245820221,507.087947256828,-4937.66804851469,2761.86010131738,-538.78353834282,-1348.35716839958,4604.68054112451,-4391.66088313527,1846.21463025605,525.695669293985,-1191.08575363956,4789.2052802038,-971.249127203275,-679.37854785869,68.6978497219813,-1140.46024498656,2106.37775707061,1539.05061151523,-1952.61308567788,-854.640035035204,2698.93367346286,-7211.37562898193,3625.38839117131,687.390891974348,-1226.66208463881,4340.69202280268,-3745.43975656803,2290.189105974,-57.2682543562841
"1",-845.588454073424,31.4720993483093,6680.30391605988,1141.06805277326,7847.46847550186,-716.353910866203,6333.7330134407,9244.80922996369,-448.86218972347,5123.30069512722,-7047.43430747088,794.234225166569,-13392.6744258246,-2798.10487082519,8079.63398627257,-3054.75759067048,5630.86463131585,4448.52399809028,7086.77883191101,6848.14188320729,-3135.36374939827,3642.72345059902,9028.74640191736,-2617.74469815899,8476.09697169425,-2722.56764666388,5602.75887622807,1745.77294423842,647.832003619702,8693.12913262263,3180.03261554409,-14689.8192332215
"1",7434.30202596936,-3498.26684285573,4700.97617570571,5047.6644783059,-15482.281919963,2619.80420262994,-14884.9728427268,-1565.04609568239,681.902456354439,6060.26896960217,5403.75028985334,7700.83578875057,4754.77589623849,-9369.46503294974,-3056.41343060561,5250.44172170862,-11204.6598055117,2194.16727641373,-16434.9592731195,3828.7151412371,-14202.869731763,-2847.28899065032,3553.78184532672,6569.07967727013,852.682185607,10221.3659519787,-14777.5537399627,7727.20707431855,-8240.16545296357,5804.75589558644,2752.88324307481,6342.37144156373
"1",-1583.33901462274,6508.39367502858,9406.08704953978,-3382.96420371514,7852.61093975388,9845.27400048152,-4099.56533937004,7680.95778817452,-10339.2589552144,-2653.40423672085,3079.1291931166,-17646.3537316423,870.343070268085,1683.59984671605,-8912.72128588648,6334.40237763147,-1883.05088912532,7580.76452843263,9924.44929444766,-4855.651408487,9779.64244043048,-3323.79370520968,-4801.99812518662,6244.0933993347,-12810.6122206347,-2063.01937908764,4184.43930220919,-17199.9286571447,356.457367469897,1326.44110464664,-7016.95185612983,7553.45563850812
"1",-24.2851182811063,3419.13029896896,-3675.89902176507,-3405.70497612556,1848.10605884174,4968.55190237441,-1763.46740152556,2525.54280910233,-8355.08457635136,227.413844981902,-884.451254504861,5805.68680412635,4124.17370007728,-1932.53055761933,-376.022693624932,-3260.60434492529,4563.33581442638,-987.07177808292,2791.43878574901,-7711.81497833654,465.901997907811,-792.175346742939,6650.05515047513,1312.71868782126,-1464.18537168174,-1406.79223236971,1864.74208294025,4873.48039634676,-1294.28575781134,910.762558778846,-8348.78784360528,2317.52408958914
"1",-512.886452358099,1856.59331639003,1401.9456620129,-1140.41684706131,2203.33401733148,-735.10146644987,-90.2857620259766,-265.393225239551,2694.72377188012,-482.693492845749,712.889012776104,-3590.84411276214,1488.81279986065,-203.042176095437,1552.03367389274,-3615.47290888208,535.205099944514,-621.784740769926,2287.90491450214,-1387.59201751387,-692.158475948538,-558.856742737649,931.778773539141,2168.41928547831,-701.826946161445,789.121318304702,-3797.51834541066,1110.06399237219,-158.755204799859,1610.08909975568,-2915.31302941583,-248.988295602694
"1",-905.150897813421,6444.57781327197,59.3293467909331,-224.106265016982,3553.53239285625,-663.615270436065,-2755.06974537537,1548.41006026151,-7737.59906692729,2173.86877605749,-248.072707540805,3026.66626767233,4835.95663043373,-1795.3095196153,2109.0912182755,-9068.72089879718,1520.25777152433,-96.6207511543439,1602.07870445813,5158.00651349162,-1176.81453592836,2950.6526885743,-6876.44012614249,-1680.76726280828,-164.511871608814,-422.581861851145,7131.29201588205,-524.228701130054,3287.12947736128,-7277.89179046042,-1938.46151255403,-79.5044388114488
"1",-342.506612172279,3706.29217696703,4525.64697691057,2009.63391532746,294.413157362019,-626.487633544975,8263.49246389697,-649.718335015718,4994.06316556111,-3165.21286624382,-3612.85197652263,-48.6794967924694,-2216.81496465523,9153.76169098212,65.2518525852563,3298.08836585648,-11642.0985867298,-331.569483617233,-958.161972696533,4025.44586272413,5716.18503355689,-1873.77649873428,2851.78562416342,-11884.6563583702,819.932513806076,-936.233537592473,4774.06195907426,6583.19317611996,-2098.58129363532,1973.83304533949,-10401.3559005934,3396.28799930714
"1",14203.1273172332,692.294298680835,-14189.9789128074,-234.843146115921,12267.370077521,7326.16267867298,-4067.86182740345,-6083.94855490556,12552.357984788,8827.84623330637,-22286.082809016,-6762.79941450375,12356.1926773198,3350.7205017256,-5189.38594176078,-2288.60446832097,14309.1514059892,6968.65865386685,-22737.4373353165,-3479.09900410646,12584.7955560349,-4711.13827856213,-7915.62752202031,3663.13213929766,15803.462230979,4128.73014338924,-20119.6490642821,1805.70731919981,11824.3356238312,-12554.3841528268,-8734.66221140598,8073.90649300231
"1",335.979139478127,-1678.86230640644,1573.46570163859,460.006910732145,-2783.22787048856,599.742597683692,376.533866370944,-1432.84180869931,1732.00650385242,-66.484182122716,-121.471334660345,1855.42433387184,-543.844004829467,882.881372905169,1124.69653793777,-1131.31783093687,1507.29349372143,34.2436525806286,-811.200576856483,556.913675619803,-2573.2118329706,1036.34219396889,256.921602489717,-532.202459587243,1827.15703344963,-649.290066859079,1372.29609612362,970.816718209162,-1006.67272583994,1005.72573907038,-2465.74086661275,374.562125422454
"1",-888.627909184023,3979.96291155465,-14337.9005768062,1337.89548518083,7177.38968566462,-3023.73580398911,6682.78863261065,7523.55022421315,-3350.26828038882,8190.99747289863,5857.60928695489,-3565.92954397817,8306.32714828583,3256.15995983458,-3942.2538627274,9037.60906026161,1615.54365895268,-3826.52299860612,8163.25905428761,-4320.07049235485,-3165.57624088449,7171.31293849559,-6378.38269660763,-2592.77213106483,5784.3835646032,-8882.67417014733,-1999.79637507971,5411.17545694839,-10355.8233828739,-1519.34691455267,5379.67431841364,-12081.7063536741
"1",-241.632098094922,-227.437036572991,-378.549729649331,-554.14593494591,258.801149162161,190.329613377565,-4.28215471648443,906.509457267365,163.945394022623,-58.0551047125229,-245.807967534763,-354.344217824814,-323.501390937924,-969.828134103093,-161.860139020271,277.486442807844,101.362771285434,9.80285791101062,862.186670956503,18.2103280391361,-37.3961392082384,-75.718062060089,-211.19085358157,-162.909369048917,-753.081289171529,-104.155464940198,287.761305556359,13.6343972379255,-31.672049279116,852.991448340956,-2.99923248902355,-45.004265674345
"1",-1690.80966658028,844.140626450273,-5852.6181569041,4429.16809054398,87.6056194707465,3176.30110529864,-3166.26601304783,-2507.4078008764,329.846285022451,-3468.9341320189,5785.67224937572,38.7693442167165,2759.18691800823,-6679.41248332182,-250.794952553286,-775.934771510633,3414.55869444616,1453.95555784047,-2840.96828915823,439.792907406094,-4812.03032473795,5087.09037748527,258.808053721453,2974.83418326394,1261.11755934621,-2745.46589359365,1393.52232334375,-6791.83740899951,2384.46036686818,195.859501598699,1715.37657803466,3716.7348076126
"1",-4184.21206879825,-2043.5570880422,153.856454014803,-4916.68065051512,11951.2071787495,-7631.82580054103,-6788.94537689616,10047.9469265578,-12744.712074334,-5159.85779634242,2524.23099467758,12057.3729931006,5219.8188044351,-22480.2214105855,-1072.69801320639,15066.8733904854,-2818.25576893427,-4969.50084731044,-1433.41397030293,2272.00284814347,-16403.2572207224,6032.66707879664,4731.38755596889,11383.2724381231,12350.5926404697,-11285.1153870952,-194.566926937701,-24200.5660244743,1264.58524638557,1015.83423947124,-2130.15253182465,8147.98418649212
"1",-4897.03206396882,4563.15811815388,-10619.533700771,5760.94513922926,8229.48528909261,1336.63463166988,-5175.04313498139,230.113373045954,4182.51517590174,-8493.83290253429,-4999.35369551876,6843.54605830927,6054.7810739018,-992.19968317243,2595.42566777484,5861.50853651315,2025.01847564551,-10429.5726632589,-3207.7503337528,4230.58921426128,-6426.2810346525,-4387.49820980716,6891.25628687133,6812.14389903093,-1136.03235250645,3755.63724815923,7162.44821888823,832.148013917111,-3021.81351179629,2071.87383547441,2666.26755439335,-11885.6238914377
"1",117.675528276876,4141.20793100068,830.379860042594,-835.731513946296,-4820.9348802312,1674.10378359584,1131.15420068566,-4916.02051483921,2387.13107649095,507.719905950425,2922.42534213341,1169.96274164141,-6755.01492268139,1355.35591633571,2928.75965172415,-5686.68759075078,-375.05060034972,3946.74477347575,2057.31661607846,-2135.73911932237,3824.58971047403,1731.21279606219,-1111.15397186594,471.304834504217,-4643.85707210659,2549.06522544771,19.9626553217984,1335.96208006014,-5871.08735016259,1473.34356422068,2207.34057780717,-6311.1931359425
"1",10024.0727539,-4378.2695354994,-1518.06567099906,7331.63384676814,3288.39280906653,-14433.6836757386,7357.75753683634,-1847.25369612578,6915.5386398355,8992.05406969965,-7848.68083812921,12732.9188596196,-61.418564436983,-5728.22038056269,7376.95132909687,-21745.759822699,3855.41061249942,4392.5313441546,-17254.8034488385,6168.32115367282,1364.22015312527,-8652.31983248929,8924.07192336599,-3282.74919596045,10909.3081533479,-8248.52875677704,-2507.73838694607,4405.9096401583,-21791.7057310105,7427.51044412371,-1412.41054047361,8958.10744039136
"1",-12105.2452304599,1302.50868664315,-3210.02677867301,14791.6880380047,10385.1343196378,-8274.75523140065,7870.45875213149,-23000.8859753131,6059.52815759551,268.719316690194,5076.09698559742,11032.4134046926,-8179.99411715536,4202.32689395085,-28153.0260724519,9975.84092843361,-3049.65793554802,17181.9676928894,1664.41019741742,-5329.40280103025,6991.40182380217,-25726.7085743799,7198.02543748593,-1977.78659059614,17542.575027247,3819.81331724682,-5494.30564892551,2060.42541985154,-19204.1986779574,11618.8532950634,-4435.05596170568,13890.2170555988
"1",1921.92034057308,-1718.2753169539,-3050.00248622801,2138.28054365704,-4387.9379188292,-2162.27302917708,-844.475771664094,1941.52875847009,3774.78395505786,-137.669785086219,598.30903702399,-4062.67881813519,-293.083527502087,-6.83503749750443,1680.85566498202,2900.38956364937,-488.013387030256,674.906347497171,-4114.61772096956,-520.720917659767,-198.135921775012,2053.18928218282,2340.34571137406,-793.604056510466,-212.597537253289,-827.598519186252,3808.33323576421,727.411245445374,1206.25454755715,-5347.94237460183,-1591.48838284069,-427.488105991355
"1",-6427.84967841512,2117.59991820749,3093.20395935918,11736.7110690254,-73.0796235273322,417.968307270844,-10968.9128807735,-670.330452501767,4607.34740167575,4915.14172846602,3802.18781457473,-6404.67616426076,-585.297024874037,-6156.09730977198,1595.87542364658,5645.36197269927,3368.47264429818,1657.01739502574,-9260.16625593397,-1064.84298841649,987.471130749561,4169.44844881238,5375.17092339167,-3849.24448214949,-317.813143672593,-9387.80538169509,673.049233132087,4997.10078589028,4885.85402097609,3013.15626057708,-6630.68809831522,-435.53520893578
"1",-3094.95287578321,1664.43963617883,-1400.665577402,2255.49185558056,29.8180125081173,4.38467374443104,3299.26055059453,-1284.28042311603,-612.513282726554,-28.4625342707377,-1239.40812632022,-2537.53141363449,2328.10472990009,57.7738617513411,-242.902818486295,3768.25353212273,-178.823364526898,-791.737764638539,321.291978634744,-790.49415602136,-4714.86647532073,1580.64548553175,-161.971067345853,-755.582720457643,2698.01283551229,1344.62054491416,-2168.12414059515,-2888.66275027308,3156.55913547995,94.3297111621386,520.83760098217,1105.98021919602
"1",2677.77544263585,2532.89527166584,976.014703513195,3432.91891591011,1296.67612370791,3309.68150205408,1959.78677385747,-2062.88757756074,-104.060561494909,-5086.94379689513,-277.013770678885,-1500.74883662795,2984.86114579687,1787.00505596369,2964.52319841943,1582.88854535262,-2300.71314331787,150.122039194179,-5376.11098149263,-19.2098888118983,-3487.38908971838,2949.48855900767,455.437886602277,4096.08572865713,2353.8854638378,1303.9529307498,902.540610586606,-3549.74960957211,-220.01436127131,-4635.88749385216,535.10895271484,-916.457877247338
"1",1496.87986365961,-6534.63121224746,-346.810271042929,1063.0887580474,4825.84945623329,121.886785677947,-744.750950943719,3583.73856738127,-2280.38485376739,-1947.38913576856,-594.922376281316,1324.14980618727,-7253.13102654444,477.060991394857,214.319111748332,456.631823917109,-5556.23221489323,2522.13769667299,933.098121136466,-499.923754186987,2073.3620987634,4292.9892065303,-353.934026984283,-981.124902698992,4070.9243297363,2780.64577230787,-1372.20742700899,-985.681322044701,3361.5527460851,-2230.22413340923,-2004.18404654593,-352.056299265362
"1",-3020.20988573436,2876.05676179914,-14909.9840960961,519.449624655798,-2934.27384501955,7742.06580491805,7108.52745430567,-4011.26673737556,8617.43231957595,-6167.38743784898,-5286.04980367377,5546.33146678856,-15022.6587437901,-2394.93558751464,3902.27901313578,-18236.329954944,1681.20808447491,2432.07230152661,-9591.86539674544,6735.04215740676,272.344548605493,2252.69238963205,12031.2064418914,-2383.80272867794,8198.60533196144,8359.47529239416,-4243.92981165873,8562.3449090217,-4306.04459043772,-5002.90142123858,5031.68042633097,-12880.3702370017
"1",-3530.54175419201,9438.28432766661,3415.72994282077,-139.787750002461,4925.84635005302,-9083.18890844101,-5619.93402190739,7522.14316298782,11026.4953010565,854.096827502693,-13380.3745291903,-2807.60493585218,7356.26559781561,2362.15770479221,-2962.09927301127,-1154.09448740908,6814.05609493653,3034.13318093014,-13775.790671571,-5686.83781706198,9333.00970449706,9344.08766449705,-778.680406184318,-11656.4349134674,997.414260962094,6244.34512209509,-5196.13050093554,-4354.65280948943,4987.18247284995,9477.23908376322,1580.44700468693,-13483.4779575891
"1",4574.1241658682,-624.006855843657,3695.54718667294,21703.71962315,-2304.72708447575,15612.5744246003,4770.19947566574,-4932.31113285235,2028.38522858101,-16959.7282362063,9547.29678416836,-3530.84155953786,13785.3576988789,-4010.56457596611,-2901.8416019452,-218.646954777809,-6026.36327506982,12519.9516119323,-4658.35441720842,8493.55785968013,-23536.9186128509,4873.10283071349,-2072.97908662593,10282.2233328786,10159.8305380979,-5090.23290376029,-1254.53300592482,-3478.39719982588,13413.7966943624,-5533.71351696353,8693.99584355135,-23443.1909195697
"1",4657.61605836183,3131.88226257797,-4611.74423370189,-2854.77537924023,1670.26487765694,3194.22975784924,-174.542285043406,-5106.70781023811,3088.00954157152,3357.36593651228,-4527.61605033635,-2275.31399757689,1693.66168683604,2971.8509373412,-175.152233744874,-4656.54078766486,3876.54018807389,3238.75390007381,-5078.04890609277,-1495.28693752685,1993.51098403316,2580.54765968538,-990.976645000986,-3446.872343454,4638.17513743583,2789.86345113975,-5324.57265229731,-1159.35719360101,2652.78089679327,1927.18790044828,-1036.35600278234,-3851.05927758257
"1",7058.9121757276,16000.3112601722,3850.80902238909,22457.0212050765,-6003.30906614536,3303.66111147389,-28016.5537687684,-459.620003230631,-20954.0941774239,4489.50422085714,202.704998019081,11482.9739948424,15915.3529334784,9997.0143972804,11952.5073627805,-15598.5016701837,2075.95752908926,-28109.2663099542,1269.21706253564,-20024.0262693346,4786.4184357665,3102.38663929388,12051.7512938379,16387.8757843933,7938.27105401686,10031.1966710196,-17846.5249758775,2621.07817436867,-28230.9447515403,119.685323990055,-18916.3223690426,4683.7966060811
"1",-9291.32946828412,-3301.06283085531,4486.34673507506,4795.89326710916,368.214381961938,6127.66715934565,2207.21925422701,-9548.05162910105,824.575311450105,4515.22544387017,-11678.8349365757,-2483.78759880491,5627.00816098894,-5290.21658793714,-4592.59053474696,5072.78488483837,6899.4922202765,-162.369009391164,-5538.56362146561,4382.81621042297,4724.80433415931,-10134.7723277914,-3204.49164512303,5851.68592606778,1913.15870000666,-3181.03759647373,2147.09296068212,6659.82230143377,1681.92901460433,-9898.43823409844,1752.5543562611,5515.10250240334
"1",548.691253506688,2946.76828743338,232.281708911474,-615.68022639059,-1157.11913618598,658.337478229466,3201.56916549726,-597.098122768233,-252.727622619278,3317.57719951639,-280.571876591981,-734.594984492359,3136.18568645745,-276.230452112123,-742.502834378063,2692.69430070151,76.1461881940922,-1373.74489367343,2663.12045696316,234.899994520218,-1584.75131534124,2968.86158887436,291.118977968359,-2199.84417207728,2707.85117489402,340.656989943401,-1547.61975811649,2994.18808169768,-40.5416607253593,-671.525828272451,3165.16227968462,-421.097035932423
"1",138.421407832259,2224.02953734943,-214.319344135943,2383.93185293902,3199.2336134915,3092.03969918782,855.011784094223,-3470.9548684209,-1179.3186138296,1063.87037511688,-5182.06771190946,-2366.4458351305,2249.4516907604,-902.64307784663,-2249.32476949966,3855.75897123145,4347.76669829485,31.9839780728771,2834.44291072195,2987.38761948385,696.247143122629,-3827.17130948562,-1440.99207866256,966.207753336988,-4924.53562640599,-2370.4594080342,2746.51237612752,755.39283514685,-1560.77280505694,3672.83293246561,3974.22027951696,619.801368662103
"1",-5687.44489375438,-2901.92315150837,-633.348645046593,787.599418434779,1409.97835116115,-914.574160322918,-2826.36270748103,-16.0975974955891,-3048.38372055925,3739.14913057907,1279.33671786098,1636.46520362721,273.928343505677,-2087.37707529454,141.410278783464,-4680.36118289388,378.755671432136,707.254003698573,1423.64286354428,5165.61114594753,574.937590197813,720.456131309593,-4709.88618729765,-3158.27847928283,403.056144186166,-4260.47304308445,2563.60579457954,1051.86733973824,1524.4843070613,4077.76759070418,-517.354281974527,377.19261965627
"1",2043.82622414529,-341.717462837344,788.473711784022,4004.91641345868,-611.582084132828,2816.80342798273,-7242.69635355435,1237.61592489888,-1296.10683031454,5121.45432568413,1448.25526392838,-1909.64019786206,232.078012163814,-7104.92228533518,3543.93002321024,-1361.08970909487,5825.38503035717,-4621.75692498392,-1634.94578549408,-218.326646075951,-4076.28528281983,3195.60386132217,-1302.62867174666,4582.73753626066,-3987.55741510572,-1421.10836949294,-51.9736434326687,-1594.64736539994,3842.55767069465,-1285.39618685724,3635.44423807309,-8907.4353516822
"1",3701.00651529516,2600.85397025335,-964.877299640812,2198.67986834523,-810.577064193605,6366.15126520818,2141.15323154789,-94.9075898600027,551.109968557931,-4423.08437651316,347.088493824975,-2377.50553278952,-1961.90915098103,2173.10235249966,-581.23839605984,6936.71074614292,737.488688650162,-242.78394537091,-1307.55207411128,-6001.87365212115,491.589514704386,-1756.00690611174,589.035694640829,2112.93421174007,-197.271158590322,4913.06070751783,-1433.23339045748,-84.4250849903008,-2645.77273241712,-6685.69600398931,870.595856010796,-1054.85776372854
"1",14868.0313152925,1881.83371007448,-13951.0265145046,5617.73113342327,-20141.2710913575,-4096.61337049365,-5091.33026709818,15827.8256537043,2336.41996573646,37652.5434572812,-367.814288147604,14732.0109616669,11937.4546846936,9709.42950739934,-53023.8746383635,5719.16165654523,-52326.782205416,-856.405039493365,-48204.1702727606,-5649.84629807939,-4535.81586938304,2387.69380547598,12996.9741340885,5932.0494838618,14540.5989283473,-53846.7351808408,1204.22913321705,-50504.6705170491,-2331.9458278945,-51054.1556469591,-14869.7450500193,7423.71510694975
"1",-103.993362550187,-183.306318774085,2325.64195050778,-243.861028810771,-1343.88367289802,-415.342365167677,1003.74168736705,-997.376544791236,-1503.44118423672,-281.718528334591,867.810155056017,-981.681412473608,-1546.2242705448,-123.467635290875,1001.04644885767,852.81774375777,-1405.57827862008,6.3404100854515,744.845962836804,1607.08458010771,-1081.93347554774,84.0020921694693,823.59685889362,1573.92492435767,-991.370589876954,323.655690115415,831.540834398636,2101.35666240767,-691.43520561044,304.188364727414,642.374052930783,2863.22451392821
"1",-2592.08012704024,395.85837224031,101.374122192172,728.666707687936,-2070.94164745737,462.757470652211,1116.43219031284,148.452899410549,-301.23882472586,755.451746068382,1227.7055168826,-415.387430444332,-1127.41149515192,1080.52112535033,299.992357291411,-2854.31464691674,1060.15425936199,1155.82836693837,-1473.62815250363,523.985807282812,952.473857833441,1262.64771662575,-178.783383040642,-549.911374977271,2875.84043078985,-796.19003639573,-999.139954965729,2711.67749154297,136.184445026549,-1349.72141644494,2358.64599517509,354.91647981576
"1",596.339483380827,4551.66069734126,-149.868213840224,853.011752438995,402.355319308194,3243.17503723633,1260.07583102966,-6890.915969133,-1537.07468000235,4274.05643479701,1188.40162197343,2580.0749254324,2727.21411305668,1444.28970485487,-6795.29840319392,-1844.31188921304,3512.90090807834,3388.0717438393,584.262129080225,-4840.53461222002,1095.06932826656,-456.191367050047,1068.44980034183,3009.3702973767,4228.50300825528,2255.97800504206,-495.74583912226,-2684.12016640725,2781.63140344597,130.235179286911,-2818.96568292326,1659.25885539358
"1",637.282169754634,4418.81022396995,1678.25804489207,3820.90206575466,-767.416607509662,-1240.11128576923,-987.220858254607,3187.53051817848,3361.03474440154,103.182663890591,-1736.77547180722,1431.61566121657,3835.84116328592,701.932996776296,-5727.70522218689,114.467114181741,3209.1219140488,-4273.55557083148,447.949662964846,-5870.61710827055,-1443.16093735372,3829.22192259855,-1618.2333737476,-460.654361751477,-4646.24974774248,896.626214807955,3345.47062269215,-2886.30017914463,505.775844990928,-6395.52409827695,-75.2354754292187,-4885.68556854089
"1",5555.51759885125,61.8394829417137,-1787.49370993253,1759.90634457764,-9101.47115185536,-297.319895107488,-1192.7367972581,4809.12904437874,-1189.95400620107,-1159.10215420109,-556.489007830965,-1405.52352437908,4696.08605108276,-1118.81120271923,3151.97432176027,-8777.63786953589,369.721384154302,-1461.82676401951,5489.88205222638,1821.08104373929,-1207.31199271042,-265.423912275164,-2095.96748820751,4228.98772403975,-847.512106017808,3891.24035931032,-5102.49887687695,-980.427978862493,62.2343139675928,-3833.3605401878,4318.4697110504,-1197.90242367162
"1",-702.939412747456,-34.9632127353805,152.824832377189,-1035.00898905974,1350.9064422535,772.392660222022,98.378875516099,-1353.12983544838,2801.43846484355,-542.939289529299,48.158309081741,-762.45150642811,3126.27787782053,-2388.61495186966,770.932342007802,-0.407636293985676,1821.94697007354,-3029.99922494037,492.29712580293,682.162000345893,-1560.14587994359,-1986.28394268826,1029.28191453007,519.537586365215,-1781.29954580343,-1010.61349651669,842.086552242897,3034.10527440911,-3070.60994701105,320.108072195164,-1130.35800490154,3535.39184422415
"1",-237.151984884483,4162.94641270193,-2445.30104337494,1484.43418252731,2501.25084723124,-706.020198953254,2168.48682455196,-4939.46629567864,-880.61225532317,-914.884636369043,-2634.45213291026,4557.00454769974,-357.52056110131,4130.29774133387,2747.81911828218,-940.173166079152,2292.07750373952,-4917.56972081877,-1319.92328013937,-1099.19387349126,-2378.85930534138,4608.57281202468,-340.434491621187,4997.40350045521,1224.1099472029,-1127.49537870901,781.45525194142,-5924.27013700756,213.270597302489,-961.712771664744,268.406645232221,4267.50831460406
"1",7020.64287871849,1359.57784421195,-12982.5425169127,-2850.72029485585,-3320.31283456737,7102.51964216013,6705.17980924107,6671.60042315462,-8875.93007212408,-3062.4424882162,2428.25466651089,-15405.2719074991,-989.746885782438,-4040.89282206442,8207.19551367805,-10907.5190246901,7210.03269386143,-17513.175020882,3763.68732789626,-17458.0041618405,-793.122297984913,-1904.21564782896,8111.34715046987,-8621.32035732912,8007.16030752595,166.099606246627,-1099.40217180434,-1218.30130689158,-2022.68914276753,1315.24725078708,3796.8256972029,1418.8121072396
"1",1031.16363562724,5648.60781322878,-236.527537658007,330.086128938121,-375.525244542227,1400.13008339873,5476.56630261153,43.6572964613567,-991.904687775428,2412.41090125116,-7738.82776469185,-877.523229359463,661.25007248638,-719.244628866878,3669.41782480171,5026.16950306014,-697.196015421796,-869.606224120789,1820.75019455349,-8059.51404648145,-603.62190434363,890.005598355246,-661.892523123445,2817.0583058324,5184.58484673788,-687.361099155018,-657.709041365046,1920.2694005854,-7260.89457995891,-930.194182616359,446.898896457884,-393.39455216609
"1",2463.00169928529,-11057.705616928,3006.54771562449,-7450.20481197138,-1484.09173434377,3982.86478507038,-6016.82610630064,-2078.78532837786,4881.71711432751,-5024.19885003342,-2559.33793398841,5159.65558801212,-5566.71607815095,-2181.10203182178,3364.3451992068,-9610.32086349235,-928.972429284189,2141.51352941831,-9324.18072462169,-729.412591565856,2570.09331731784,-8548.88904290885,-1212.35663980868,3101.89673252509,-7768.71513646376,-1390.7737522275,3616.18695267732,-8234.55958933575,-1189.83677078458,2763.6840559918,-10476.4625183813,-550.728577827838
"1",-8625.25951445491,-3402.42689906571,-1435.40747644833,4020.31891773072,10814.1533251606,-398.73447449101,-682.892931178027,446.597261022449,11692.1856128504,307.547205527296,141.241289651865,-4703.59142824107,11294.5322704977,-73.1186816618279,5140.89533848342,-8316.04154224403,-4177.33534987663,1575.23775168758,-13311.2447308657,2269.08840857864,55.1182331569786,371.620842602459,11602.7486735476,-984.684104280915,6113.66776589018,-10521.573298991,-4298.10985687509,-1838.84959857956,6161.08188309741,10232.7581944259,-2541.40964804376,4814.81731374488
"1",-117.814141437999,7.17688730119053,-1362.31263029634,4751.50264846827,-3179.12348932189,4570.56699074256,553.078643115491,184.406062920961,-489.085055285567,-264.440924404913,-2735.16718777794,-1913.98984765486,-1989.93478649482,-295.131906587776,55.8614918029776,-1930.38663355949,6366.06143243403,-2498.82274395678,4839.59760538566,523.35039532976,195.260755738093,-589.308939430392,1332.31692120763,-6713.44927812567,-1121.73429255366,-1158.05590455935,-62.7950717851724,-134.190352020864,-795.429106405141,1008.67821556606,-1324.37460207518,-1367.03681962478
"1",-15616.6870186843,-169.073473675201,-689.975554749937,4576.63472454052,-2495.28545929314,9131.62273287917,1809.66297877954,-2565.6143047822,3036.36789017916,-14944.0388899464,-1277.68332823689,-323.087228293799,-2722.35118282076,5807.2861969269,-2734.29390410962,9396.34330711045,7511.35552089644,-2607.32448490725,4358.84196047389,-11883.514376381,-1371.50837122725,540.503087842056,-8305.18102697524,3825.74259319619,-1896.75913665685,6017.28111224162,8867.17547925755,-3002.61320857513,8215.5756558677,-587.91390772466,-2645.11363990457,2660.67460901925
"1",-502.617595983191,925.55323184408,-688.163307982629,-1008.5645844421,-223.670969430188,-686.27584166376,-496.312974055276,-113.572676958927,1529.09453013032,353.255103679309,32.9901445079932,1767.76137087242,396.56395386785,-1405.44010273649,-176.259938705254,-243.739184198296,-1920.85698764504,-747.427821505573,12.5498737145492,979.178068744926,44.3272839425152,201.424323102034,1922.08239918757,607.801479286816,-1511.57359439309,-2.0586073498024,-261.835822764003,-1449.11783251242,-688.352508720971,-104.2970360397,1561.22207836223,564.562605218102
"1",2172.43046550671,276.31576719965,4073.44285875301,3866.80082079922,-5291.4004794646,8745.16980249276,-2373.15889798334,848.513545728909,-10767.5924022753,9423.36077260928,-2222.74453572493,3998.43623716955,-18923.4996585999,5551.14525872689,-561.461471443037,8029.59181254935,-11546.7799985501,1698.5778909041,-1933.85467581125,12191.5154506826,-196.390721180732,-3269.62371340601,-2126.3631003097,6635.40391610768,8396.28926451448,-5461.4572786652,1145.97304208241,-13098.9262340001,6859.92137116737,-1535.100278747,6414.95411741297,-12113.2054913216
"1",-193.335208356506,927.208435579843,2771.19090409776,2782.60291500566,1085.46093901463,2631.99583343717,214.906584386655,1788.09983451047,3333.29502582856,-489.041531646628,1139.86493627005,2717.47827086209,-984.613859285139,2148.64647304352,-529.334033161316,-593.573178821142,1718.10645270196,2637.17662289247,6.11279242788259,-156.271966434966,1482.93949173854,2737.18875116195,255.69508434584,-37.4574059811833,-1672.4465089186,1541.61579348215,2191.80648597897,-1778.87890519398,-659.626781092206,-456.544829222444,1881.94063301903,2726.04222877422
"1",-2793.89579538222,1079.60291688087,184.315952766595,-3065.90447960585,1627.7869972984,-4671.30387911273,-4061.21312036484,3259.33969227936,4262.4799250668,-305.017832358112,1014.69388765509,5401.03867503048,1784.158436369,-5445.48316603854,-1651.55331460301,1575.6111158242,-4796.61912979855,-2771.88724990578,2195.46731939673,3929.23808731404,134.428240337974,301.532294663916,4459.26269265964,1902.32715523471,-6738.30797266454,-3327.58242755826,1960.01436944474,-2161.12103404475,-2263.74524501221,2638.33825200712,6061.42027384394,1250.96775003803
"1",-1440.66271667506,1629.07265773881,1811.74658530476,4894.60042301427,2583.74911832023,-274.827298737161,-7664.29946518211,4154.53146127245,748.957025185361,-393.437261182522,472.541097417207,-7418.22996019648,3842.15871890416,482.969579974486,-7932.8425708072,5057.66379927771,644.254015016623,-1083.86910679278,-325.023733244945,3877.00797764175,-846.997948701443,-7412.51185977417,4295.5988909678,802.967786108845,-798.522072882638,1641.85648076472,-11835.5243415481,3775.1387667735,3407.82438788952,-2532.09840284067,-448.546507600995,-96.5407247283654
"1",7789.56930590766,3486.539782032,-5037.8557225475,3463.12807469631,-673.14476748975,4695.02986254943,-15259.7328855432,3049.0910065844,320.349172994942,2692.1219100934,-13634.3797504244,10374.217860449,1585.33041510609,880.261252961528,-5154.29545051626,12940.0936078936,427.461533789079,-34.4037371941074,-629.583335882573,11092.4211729154,-1228.70048983869,-1648.86349427339,7605.19951719747,1296.50839711922,-5932.17111251567,-1948.84108432588,6446.69749846648,-11295.5847425964,-3172.31391084281,-968.05460780218,3363.12513421927,-15514.4588738376
"1",2507.52700082955,-9425.9143255113,-1512.8619268537,3917.68954775236,-1237.43475575822,4033.81867920599,4896.29148067751,-1335.69465257619,-235.0465664358,-3565.09548014175,5722.19258156454,-409.29639984772,-58.8723936945107,-4379.22435839485,5322.63808064361,-227.639083166463,-669.654562097518,-1253.64444562453,4922.68814787925,-597.130221062114,553.72918214137,-6459.48872161285,3342.93439017547,-588.953692373004,2558.1011579457,-12400.8876836691,2274.26088418821,-426.175542617706,3473.9656204229,-12082.8948621707,1723.87866132085,-176.512251073849
"1",-4304.34273810567,3539.92073853926,-5676.99426649428,-3308.97486459843,441.340860986468,-3838.74709646857,4202.57979035754,-4882.41173461574,5070.00370501389,-8282.48512797262,5820.97095924529,357.950128603838,2714.39285777998,-11.8605010801856,-4606.25079915074,2132.82230360634,-9497.43761412338,7329.3022064513,-1957.21173407428,6285.40867960849,-1907.34403347451,-1864.37826393465,2168.3416175706,-8624.83690083213,6365.57094049849,-1956.25164291793,5708.18098043215,-3835.81568372955,360.079591681012,1226.749708645,-3067.56856766412,3696.95986273196
"1",2902.35953328936,-3247.84589501221,-3631.95416446887,2086.77839680452,2712.10531564285,-5219.42498377209,-1303.98703870078,6986.01190933928,-2324.21712285856,-1628.59141541203,5614.15785546228,-3485.74280452599,-424.748538550559,-5242.78465030291,-1507.53185514554,8806.20429768323,-32.7478581846766,-4787.94315992806,4157.1915775245,3093.85231500031,-1236.58467701253,7395.20526809418,-3575.04202626229,-2797.02343258163,8796.69700481448,-818.535516057441,-4174.63477865005,5703.08436025525,2130.69902375681,579.892483536308,-3014.08488471485,-4634.50432615181
"1",-2642.07954163684,8218.88195275143,2202.13802549606,-4850.10316605029,1357.78646854572,-2620.26827322092,9234.57973664435,1343.06737998288,-5475.11463847534,-1837.57910211056,3912.56272181489,-3788.26777117976,-5037.87869770784,-1701.52923875688,7800.47759415844,-778.553952969381,9472.91562708187,-634.19573347663,2566.1531359133,-5524.74038172052,-1713.07741689513,7910.00357209118,-1945.77220174242,-3652.03742187316,9435.27281326824,115.733669121063,618.189940348856,-3440.31570047892,-4746.04462312403,-1994.69881041485,2014.70051594106,3638.47271783919
"1",-1288.81980390654,-897.594485607354,2736.86215475065,129.087148791153,-1239.73019878625,-717.994673074984,2292.42369996722,950.940046977609,-1390.36178412328,-786.109468063152,2632.49813085322,407.546514280989,-1280.90990116979,-765.645525247909,2244.99992439642,502.12656340958,-1349.13013334797,-609.84213155018,1790.64880704369,1047.44761429588,-1506.67381003037,-809.775110795819,2723.98813476737,-102.222280321052,-991.153264508902,-754.84126991435,2755.30995849553,-584.26458416926,-734.80178595936,-507.932544803616,2378.70398727255,291.77660376861
"1",-4240.38166151563,-1571.15929381419,-2158.27362238312,2360.86296036445,1274.82667970962,3848.87279165073,1220.0415636951,-5721.55794804289,-571.481932264693,1133.59169900055,3950.75879912789,1153.48514736653,-4993.8266351204,-743.677270468506,212.958129588768,3816.00998850913,1790.8011395254,-4621.85028486224,-1300.57143971993,-946.624519927641,4927.50118649116,2226.39947591094,-3793.09614011556,-1775.9854411553,-1727.33177903172,4769.01386196983,2225.94495414204,-3576.11922061514,-1621.75040736957,-1231.92471490278,4885.96082829425,2207.90978696629
"1",-3232.75476489405,556.937185872121,-3786.91992314977,610.540473056352,-1486.74487010177,-2887.7386056985,-84.2066056833948,-257.365039420612,-2102.12460349288,-295.701358401943,1142.233133846,-1165.67894223474,-79.5238516301191,932.309826061711,-1182.11133093913,-181.477349849752,735.322530312142,-955.690051645727,-387.372050389184,1222.56121332353,-186.163483588748,-454.72315344262,1872.78572318694,502.438323583284,-296.456550105628,1484.97957713316,-309.850022440416,-239.374817210453,80.9394790058375,-1991.18761325692,-257.424444770592,-1386.29683855912
"1",3620.68869212367,460.992888859725,-1628.12337083831,607.509601003506,710.299117137365,-3278.90837788098,2186.74049016056,-947.665404356262,3648.82356364746,1665.34286046192,-1514.44690961173,1362.44150653397,-6589.79158708105,1408.42469258036,-364.834190357556,2595.26324046937,2965.07102368766,-1454.44723192147,1420.05199824045,-4293.29943499161,103.198656624351,476.348062365792,-1257.85023360519,2565.48476849007,-1050.12388680733,3297.81326820103,-833.667459867813,-1047.36711764773,762.071866083073,-4747.27461511287,2239.405024374,-869.836563666046
"1",1474.13288326296,-2953.66642908841,-756.846936634865,678.659079524249,-3551.3493193858,807.272020897527,82.2527174893815,59.2841239994202,-686.527555632205,2456.42469504453,-218.5034879438,1424.36819266854,-3671.39842519775,-780.807728903989,2030.90585810218,-238.036722065252,-805.404560763254,-527.090491193637,1482.44913123882,-2165.68293737039,-849.625388116258,-255.768297178671,474.37645728837,2585.5232430606,-446.106975351339,1180.92367505386,-4175.992893101,-939.698568721326,1989.45141046828,-205.187577246874,-744.192789688356,-540.73021728655
"1",-1819.05987480306,3290.59042547572,-4663.29831854707,1340.37898479768,-916.79838982206,3599.02912883133,-5633.07446389875,-112.742346372488,-723.74179031972,808.329156701174,3629.32847601325,-1320.20049712522,3713.48080559993,-5341.78138444465,-298.411432432794,-738.284671159841,488.710714612821,3944.71618641742,-1147.76754554244,2430.32005519308,-7071.28462960299,262.539366759393,-620.408672553099,467.716171290242,3897.31137692159,-1170.66603314845,2484.97708378939,-7816.52981066436,712.722961267548,-1042.41091238503,3916.3098984965,4194.34214721384
"1",265.562476920859,2194.24330497696,37.8816623240104,291.557249420138,-2658.75316658629,-235.793019738238,732.813120693077,-1944.78655345224,975.577085471957,441.898901898601,34.8197676582161,2071.95770110004,-226.679584352442,1562.27454072366,1475.51789522276,-1177.84783825937,1024.63914324196,-1851.6868815313,-1387.42953815785,725.379597686491,-2198.24889383274,-632.296165990122,809.950871245797,-2788.13398670827,-460.578525952701,1170.95855620579,-2991.14925728707,856.707233264375,580.980260048446,-1252.25233246938,2264.61478473961,6.61632706560968
"1",-1173.19658648545,-1328.59990029577,1675.0145758382,-1361.50880302876,77.5645722943948,-1635.08396157267,-1082.79845219744,1493.80629241512,910.758949187648,11.3405083277203,1951.479992168,807.784787455161,46.5304462215991,-1298.51506572953,-1519.10304759178,192.686244707998,-1338.98648193174,-661.655639224252,1618.23862610586,862.080789269181,237.241953099952,-91.7664524275171,-846.059464101673,218.98489396971,-1947.24671081164,-1106.70708323034,1680.30319724193,1297.52322578374,326.186280324637,1086.72620449341,-336.377947999758,-380.315993018244
"1",94.8576308452685,-372.06273512327,307.678246781814,-9.67237102887543,-6294.94459945274,-619.205570003039,-435.368961385607,-64.2892350035896,-116.282332218366,-1809.46254601815,4744.99233015554,3094.03965572605,1141.86329098462,63.5869542146952,284.55914839664,-971.662806757144,3528.41985438276,-7668.89699331045,490.775670407498,155.671004102773,-512.948215284932,219.671444948949,-1356.91542192183,3527.91644123506,2261.38716118035,-25.5035030974135,-293.294229974843,-284.329940564347,-1120.9830805582,4121.27217693347,-1036.67231999826,869.022674987245
"1",877.317879208691,-2767.25099648814,-1098.51057470022,-66.9875172761601,695.249490690681,-275.978180657646,1065.48100673947,-174.689196398296,1006.17084952229,2478.96269155332,-410.375227801828,883.009609716405,2803.75517127042,214.286779609451,1419.90640247159,2482.26702243156,-736.239460263933,1001.7018874698,2105.08106829176,-593.030595317176,1009.34216490858,994.042807346292,-839.177606319924,1543.10545572072,-735.509490534394,-339.441478934057,272.114124924545,-411.073960587076,-1856.27808522023,558.128209901622,-808.5595435386,-1627.07765347486
"1",-2125.03908936127,8734.53299857045,-12559.1544903326,4679.55519439915,-12529.6414410399,6008.69704733801,856.050023428564,-7588.34012975322,7724.37258797367,44.4798715098422,-5215.18458400012,8521.61341224242,-309.170917737064,-4581.36560792705,8917.26917786501,584.581601755539,-9195.62268833436,7269.91638079015,2212.95549149972,-12681.8587666373,4899.50178807599,3581.91000280427,-15326.8155324538,3040.75195217203,4537.44736230932,-15817.567244916,1320.2929437914,5647.80639022192,-14677.9352921875,-186.197675913834,6970.20689568258,-13346.3811865481
"1",775.921018086259,-2244.14247636479,997.878048062652,-875.295127210748,-3341.16709792,737.040026215829,-1676.36238460251,6648.8646899848,1062.9640548573,1235.11094212291,-4053.59225657343,-2418.32750195614,442.862166480911,-1057.19787411021,3848.41068305172,-793.25092593702,1363.94495268835,-3016.23283308896,5096.99499095137,1358.65831912942,-227.517607146369,-1322.6391908965,-3143.45516001393,762.408992161609,-1914.51132090126,4822.72407887714,1230.99638845202,55.3807278177392,-2148.36804264919,-3376.88678147927,178.967522812687,-397.909132024488
"1",205.309136910545,-3728.56610777983,-2266.88558504748,102.678979565034,-3841.20661781015,-1291.29761399902,-45.0519583183177,-3676.33058367327,-1711.8558903325,-11.0966356597926,-547.47837624255,-923.642298652762,-435.813050646861,1987.2350110204,-115.166803799029,-427.32759275059,1890.91228652876,-488.136793728661,-364.899203789238,1646.59158199342,-426.842692761596,-722.609057835052,3956.03296913698,705.378820917127,-1183.59902143284,5660.73713677622,1867.97404305359,-3480.18383343225,1404.32193303786,1046.31077822415,-3911.47874843957,-1965.69505883657
"1",-1229.95754241004,6066.89018263079,-2132.0105008967,6430.45296440052,905.956502962562,1070.81779054875,-2938.76439862323,4630.54468824142,1061.73953616968,448.260019746719,-3480.27237173816,-2426.05827727706,348.850156155276,-865.886352362074,5256.42899689079,556.929035534999,1241.1904025369,-3207.35867180546,4419.91382683919,710.9142514946,1200.78517464634,-3233.87652664906,3871.29351066505,808.723648709571,856.957417577659,-2983.76261201786,292.249339700322,471.141165883404,-415.940345893733,-343.918166943652,-1933.22858640726,499.032015142716
"1",3183.51166185614,-14374.8996173761,-1929.4412738535,7021.04350983027,5233.7354991349,24278.0721499045,-2810.26108155716,-3774.3584061258,334.109224878781,-2096.91016877167,8968.00239333828,7837.67519831239,6829.93857966973,-11479.7747331788,809.809409849668,-15575.1067508589,117.168981284642,-3515.13506056765,8016.41866038532,3553.60851690523,-17545.9492754097,3481.36775924093,-10699.2303804147,-15379.8701440102,7299.7270930267,-2201.87237911777,6163.9517418183,5225.91517641001,8800.13343341019,226.327121858728,15.2514125952974,-3669.70820981869
"1",-10662.4007071185,2886.53796416976,2859.67709375795,9449.65526501792,2323.90245783479,9756.01738111578,2958.25760758467,-16801.4323062913,2715.70126255219,-18422.1362396317,2005.58033188396,7528.33612042001,5441.0521785404,8758.86294255184,2076.76222027608,3929.91688586093,-12087.8606908962,-2974.17823578984,-5396.51479610913,5812.30823500095,11244.1710149869,-1561.77080939023,2753.0116127318,-14437.0075432401,900.790800152978,-15169.3353195121,765.284642009747,-3787.53025255789,5817.12741194039,6776.90654494891,9736.12151087508,-7.08568337298686
"1",3465.09957245919,-20.5598435542171,1153.88996196497,2121.08423680787,-762.003332276327,4218.65983875378,-908.442023819613,3172.84894639448,-579.377693265587,-2473.30057295135,1555.34518926841,-5697.32925422866,1481.77348701155,158.731839252568,-719.801759533156,3869.25743294828,-909.015928249628,3008.11707652616,-303.953282881627,-2546.73280998355,1711.06966930577,-5751.12531010421,1393.68688513049,-22.1142838024461,-277.263295831051,3650.25350496403,-1123.931988715,2639.90783179588,-2656.06040116565,-2011.7814879943,1130.19333514832,-5575.8959194452
"1",-307.496147779519,1793.20606392431,147.594924820325,4502.19162880937,-3868.17477168801,1029.36962993153,-3046.62760515513,9336.01515874954,-187.167218278335,1777.37647031917,-6287.71996976874,-4877.71078720013,762.070371753897,641.02148581906,3442.43890741562,-4236.28965562542,732.590522726404,-2043.8674200404,10258.2845372748,-611.043291580891,1775.76282843816,-6808.55699668914,-2112.15576564231,806.821971121127,1216.70936702076,-1431.65435540253,-5206.6846605839,838.19365106125,-1067.23123370461,9578.76690167401,484.559290523546,-6919.43612718974
"1",-2167.78596568447,-781.220494889538,935.215061516834,3963.36578691974,73.0395719184458,1061.01971305639,830.24335514398,-3868.06649361451,-1847.01628008818,1553.40876894094,-1045.82181520975,-1099.94131446211,1713.35610403201,2561.32651327348,-43.8775723450271,867.583808825225,1641.02755327148,482.423474545091,-3462.70003741407,-942.450229468467,1226.1126655672,-2522.38588645947,-1390.0821529743,1858.11445065845,2483.49761142032,-30.6394455517938,552.137206383002,1722.31326135242,498.886470573313,-4002.6898934635,-1502.94085319822,1713.73326081559
"1",-477.643543049526,1064.77683620656,1300.3659808607,-1131.61339964074,-937.184294262027,-356.246410571049,730.876445343119,-23.2772306795078,-257.444179509819,-321.018248935803,350.663180977373,1385.19990762622,511.229190058951,-122.45877290586,-427.76644779121,780.875098765288,175.595910668218,-20.1109027173042,-1024.99944669069,579.438231535923,264.79083657598,156.440861520331,-1503.95727576194,-948.875876363256,-183.74431258755,674.093194085102,-555.674483381456,-545.560205333267,-411.012896496666,929.800686698747,-146.898189933876,-390.504312170886
"1",-156.662432174703,-263.401829074066,-294.738572134998,-5746.34638622092,-2774.68312622821,2751.66665140153,-10500.4550644703,-72.4869281493133,1970.90275535356,-8631.92326510749,2976.51088337735,1705.5376119422,-5093.87338314265,4916.96925280418,1707.08373254641,-4129.62655577536,6051.95877663697,1530.05468913016,-3039.16922821583,7047.06588075572,969.469535667006,-620.272146845622,7194.46517579231,-543.817948908189,4411.12319557704,4611.39836204305,-2530.69286039815,4515.28493616388,-4200.82518722603,-3802.64829605487,2833.19730061194,-10346.6761343279
"1",-4914.13162281205,201.424308290718,1024.17275591148,2243.5504379455,3483.74999056463,1488.86210783399,-1437.9420239049,990.523600370466,3039.16256537758,-1046.25127548705,2640.67230069251,1522.55609759337,-1598.07788336344,2413.66641336812,-1834.98138149393,-1807.22704271337,2529.52723992721,-1988.12842678834,-1484.3780272177,620.355921526416,-4534.05647486624,1887.90735085718,2382.42403675943,-3945.95873195512,-536.400478538404,618.982327267592,-3585.51494391336,2500.87694148688,1532.28736632344,-4246.73190667208,2044.6135933257,2180.60176819012
"1",-8583.87720527111,6793.66330486211,-993.460909839766,1636.94043641795,7722.87614951249,-10953.6291269086,-5409.34296708303,11595.8398912971,9671.08793535392,-1143.93932514233,-1423.73630805221,7560.4817214221,4124.95360374205,-19742.0857160032,-4177.29081778332,9224.30218601771,-6565.47714592975,-5119.2487848045,8884.87411112424,10893.0432789297,151.415666300919,-7216.01541597846,4799.68579884087,4812.81526065662,-17317.569011799,-4733.07899279487,9436.2328655946,-1908.6062845597,-4311.23602107049,7870.65008248177,10307.1494844316,570.594536329095
"1",2629.48970202324,209.938734345007,-1318.97495340087,-2759.43905377219,4271.9937279197,-1934.3809085336,4802.37971102203,-1600.84997988871,-1615.3903319838,1021.28346588413,-5492.39561367886,3815.70043285887,-1002.99822324391,4188.49545229801,-1114.24116693746,-1724.32131082298,1373.59189179665,-5745.77048797029,4250.6504555512,-879.215743080657,3749.91480457015,1166.94846758359,-3293.82736971189,2414.15415297143,-7152.20152279554,3212.99182879061,156.869355608191,2458.26776723313,1796.67524533617,-2718.5146828929,2245.40194994858,-6093.2656943746
"1",20532.8221088363,-22818.4406281437,-828.494232152629,10180.0627849807,-28109.2677328017,16631.5377092954,-5052.6384581646,10431.7499373011,15188.3002016826,-13907.9511398127,21314.147336366,10707.1246049975,-14200.2898210453,22314.0984250238,-19113.5315838127,-812.70093667684,5775.98335527754,-33777.1932747076,15410.4598338957,-2480.80983609562,1813.6117871623,16415.4275140325,-10222.6317314858,9008.22109906408,15853.6521432675,-14366.5482324357,25063.2811913949,4823.39632718567,-12581.762239164,21791.4438863312,-19971.8167015669,-3861.28315779622
"1",15051.1112953313,-9897.81714991953,-715.085156607789,9541.86006054436,16988.1009065207,12389.1913866489,-11209.7969428311,3904.41933467777,16939.7356242813,-10790.9140251424,11582.6022434377,15289.0314074076,-13789.4361343085,23493.4781713526,-12393.531702467,-6590.98241837744,22472.4757573439,-16836.0389469207,-5781.54073310672,23952.1955403832,-14115.319087158,-6912.62108434944,23097.8860596027,-16274.2645237385,-6549.91841240635,24903.5741866091,-9203.52965853665,-8947.95123266446,21472.9668194745,10087.3810626641,-12556.8235947297,11520.8721910285
"1",-957.200597818912,-953.350209506676,-154.200714802657,1782.32736838842,-516.982594389412,-1114.02808478899,3671.19686228785,-420.334252330043,1570.02746750372,-7425.99393821284,131.72733427608,-850.139366898861,3840.18242637399,465.954404804098,-885.124049940387,-277.525706290313,-2580.25672413253,2827.59103607999,-823.589014455106,4165.40360206026,1673.79419458795,-748.232020079332,-731.843506258689,-437.497821267257,3863.74063435665,-425.097249974789,1745.88939212135,-7377.10904046969,51.9204984812488,-1082.40722814506,4727.1186245831,-350.674977507596
"1",18050.2247655725,8138.87750058568,-3596.33415849053,4420.67270358249,18425.7086684834,9766.18964032475,4615.05991759164,-30337.8275699109,-5741.10216611116,13643.0312374625,18159.1614263573,142.526364400848,2550.04848146388,-3606.21609821337,8391.48734599194,16288.5001134657,15860.8958900232,-10460.1441899233,-4918.23430198157,-12915.023646636,9884.4404115572,18495.5019616346,10888.6807876618,2759.57932493219,-28480.0013755274,-1527.95817411092,17071.5686199839,15282.6869249184,6228.47309441381,-32416.3877658534,-3118.12716797854,60.9411209785852
"1",-654.721122990527,6621.41950839327,-1257.48180651232,-1114.11174819376,1673.18915713666,-5381.09167170472,959.557401612467,177.923638036868,2028.01791310408,-6241.46540880346,250.822162356985,534.238004379274,1581.93685691201,-5808.10869985498,-394.401624079866,664.341087722078,1623.5643143076,-5979.84735157488,-210.60276883551,354.63078110397,1494.10667438506,-4670.21654399184,-4563.93542500051,441.920681463678,1263.1504513661,-3197.21910374081,-5293.20808554948,718.198639563244,538.679173507026,536.657267833793,-4773.58504856951,891.637287473106
"1",-4985.36673512432,3870.23330231579,3283.60837618803,-6055.34196910575,-1440.45774509098,1028.08861172073,-6013.61363422744,3468.3834796078,354.233144724903,594.695910905349,5702.65075140417,-434.067875154111,3501.85656064425,208.822355071836,-2145.71428630528,1699.19170960385,-6912.1645802913,-739.378725757374,772.773569818672,-4440.17578641052,4972.75893317082,348.675826916435,1392.93558207981,5077.4126850874,-777.92926036732,3437.65321363599,-894.509872453161,-2496.96902588862,1980.83377124915,-7066.64230182898,-863.997424663151,722.59459636609
"1",2757.30855072227,-6827.70478759663,-2716.64464032573,3519.73705785491,-7727.29734256017,-370.059937984927,3112.80327040954,-8415.7479680636,-1502.33852635116,3283.22008567422,-5427.11347574881,-2980.58892017777,2975.03151980072,-822.763663017093,-2675.620254114,3447.30261973883,3989.2459022462,-1811.65502180765,1962.90820635233,5477.22316849832,-55.1634799227863,-329.166510292863,5233.43140290741,1510.554093023,-3174.81345311756,4049.7911551163,2509.97291377534,-7344.49756518948,1376.79845686591,2940.13849621253,-8177.81729342291,-1592.02219071226
"1",-3178.22371911527,-545.454913940682,-17685.6472669708,3123.04141805811,12937.842245957,-2059.75662887711,-2336.65429493948,-446.311994548476,13636.3936070754,-3474.50583936442,2770.52314081641,-25528.3090605613,7309.63501223098,-2601.04063460394,11026.0334139551,-26508.3767473854,2303.89119430992,-3073.61998235003,12486.001810681,-25313.4442955615,2755.53382282111,-4977.60624018144,20257.3993434866,-2396.51825935103,-1733.42603931101,-4681.19276095605,10960.2725556649,13510.5476044878,-2929.8274540899,-3464.20960034467,4775.21624253517,13886.4692068095
"1",28.8091362502296,-970.274745509831,1254.14517408282,-575.256727509679,-9.79866912431814,4740.72435232276,-406.209045791481,1268.03422226824,-3165.34128234976,-1598.22604416851,1650.58449642845,-2432.75209599561,2041.55207024329,-902.954319934713,537.218381165069,3500.49703888532,-326.347681987543,1764.99569290747,-4187.30055755153,-1792.57620338564,331.192922697396,26.0339889706066,4765.0192094895,-975.296862169843,1007.45227497072,-3740.25594324202,-1716.95496407072,1410.1127296837,-1288.00689606727,3882.9387737824,-988.466896061453,683.045311389826
"1",-31.289128239211,96.0632000423242,861.960284284898,-1474.02556588539,-1375.63569697793,119.836729573245,-3048.59311384984,-838.022069549025,-868.486000095708,365.228884923783,-3509.7101918022,-377.98088857369,272.784446218944,934.079055041321,-2942.77839390884,-152.196408289126,963.725959474868,954.634641095798,-2143.47003147266,-208.368500337744,911.878962172756,1117.39338820809,1766.38670275068,835.788941033313,745.725542651485,968.861487505988,2918.86269124589,420.259188970939,279.523627325734,752.525852051711,3066.88272019296,-769.537147017222
